  -5.3168910e-01
  -5.1989893e-01
  -5.1763495e-01
  -5.2677062e-01
  -5.3461656e-01
  -5.3723256e-01
  -5.2649991e-01
  -5.3685795e-01
  -5.6003781e-01
  -5.7946633e-01
  -5.9413410e-01
  -5.9722223e-01
  -5.8434230e-01
  -5.6972240e-01
  -5.7060907e-01
  -5.8454410e-01
  -5.9149792e-01
  -5.8266383e-01
  -5.7978084e-01
  -5.8644323e-01
  -6.0000058e-01
  -6.1812948e-01
  -6.1894592e-01
  -5.9951536e-01
  -5.9657594e-01
  -6.1569769e-01
  -6.3776130e-01
  -6.5006395e-01
  -6.4782725e-01
  -6.4064434e-01
  -6.4478298e-01
  -6.6951147e-01
  -6.7612567e-01
  -6.6590547e-01
  -6.5358317e-01
  -6.4838377e-01
  -6.5520680e-01
  -6.6120548e-01
  -6.6448117e-01
  -6.5465913e-01
  -6.4466756e-01
  -6.5516884e-01
  -6.7950195e-01
  -6.9272496e-01
  -6.9950634e-01
  -6.8907918e-01
  -6.7490684e-01
  -6.7864471e-01
  -6.9874761e-01
  -7.0224001e-01
  -6.9985726e-01
  -7.0390332e-01
  -6.9854589e-01
  -7.0152528e-01
  -7.1846973e-01
  -7.2928390e-01
  -7.2523325e-01
  -7.2581794e-01
  -7.3469066e-01
  -7.5776477e-01
  -7.7603121e-01
  -7.7865069e-01
  -7.7425058e-01
  -7.7863880e-01
  -7.9841881e-01
  -8.1186473e-01
  -8.1430030e-01
  -8.1213095e-01
  -8.1895614e-01
  -8.2777660e-01
  -8.4468201e-01
  -8.5235784e-01
  -8.4610698e-01
  -8.2840074e-01
  -8.1577961e-01
  -8.2725125e-01
  -8.4036912e-01
  -8.4013251e-01
  -8.2845239e-01
  -8.0255611e-01
  -7.8957925e-01
  -7.9580036e-01
  -7.9029102e-01
  -7.6966745e-01
  -7.4335306e-01
  -7.2867715e-01
  -7.2193852e-01
  -7.1970924e-01
  -7.1560031e-01
  -6.9355559e-01
  -6.7921795e-01
  -6.7435258e-01
  -6.7314698e-01
  -6.7429876e-01
  -6.6508603e-01
  -6.3845547e-01
  -6.0686043e-01
  -5.8738806e-01
  -5.7992276e-01
  -5.6253809e-01
  -5.2794334e-01
  -4.9579992e-01
  -4.7727499e-01
  -4.6733257e-01
  -4.6789288e-01
  -4.5158840e-01
  -4.1519384e-01
  -3.8800418e-01
  -3.7751139e-01
  -3.6873928e-01
  -3.5280746e-01
  -3.3613810e-01
  -3.0317574e-01
  -2.6927644e-01
  -2.5811568e-01
  -2.4281578e-01
  -2.2078393e-01
  -1.9437020e-01
  -1.7195335e-01
  -1.6109592e-01
  -1.5654141e-01
  -1.5827922e-01
  -1.4465127e-01
  -1.2189759e-01
  -1.1251277e-01
  -1.1648974e-01
  -1.1558811e-01
  -1.0849143e-01
  -9.6667858e-02
  -9.2974534e-02
  -9.2790600e-02
  -1.0749743e-01
  -1.1376047e-01
  -1.0586137e-01
  -9.7401733e-02
  -1.0206010e-01
  -1.1725904e-01
  -1.3096650e-01
  -1.4015204e-01
  -1.2479459e-01
  -1.2420792e-01
  -1.3823516e-01
  -1.6516759e-01
  -1.8070512e-01
  -1.8446402e-01
  -1.8586172e-01
  -1.9116569e-01
  -2.0955211e-01
  -2.3629383e-01
  -2.5759365e-01
  -2.6809712e-01
  -2.7765790e-01
  -2.9743173e-01
  -3.3088214e-01
  -3.6443788e-01
  -3.7862624e-01
  -3.7655403e-01
  -3.9430525e-01
  -4.3636473e-01
  -4.8205997e-01
  -5.0851083e-01
  -5.1972565e-01
  -5.2312133e-01
  -5.3363096e-01
  -5.6718258e-01
  -5.9282770e-01
  -6.0371187e-01
  -6.0490791e-01
  -6.2374393e-01
  -6.5349182e-01
  -6.8102434e-01
  -7.0265507e-01
  -7.0256990e-01
  -6.9050171e-01
  -6.8981626e-01
  -7.0106522e-01
  -7.0744941e-01
  -7.1342521e-01
  -7.1258238e-01
  -7.0937396e-01
  -7.2356041e-01
  -7.5559911e-01
  -7.7259074e-01
  -7.6706082e-01
  -7.6157834e-01
  -7.6578909e-01
  -7.7236970e-01
  -7.9115120e-01
  -8.0758862e-01
  -8.0602489e-01
  -8.0850601e-01
  -8.2459295e-01
  -8.4796573e-01
  -8.4892900e-01
  -8.4322705e-01
  -8.3420977e-01
  -8.2397287e-01
  -8.3136434e-01
  -8.5410818e-01
  -8.6081993e-01
  -8.5017047e-01
  -8.5040152e-01
  -8.5785640e-01
  -8.7208685e-01
  -8.8349470e-01
  -8.8471850e-01
  -8.7111250e-01
  -8.6399971e-01
  -8.6926783e-01
  -8.8216409e-01
  -8.9280338e-01
  -8.9184210e-01
  -8.8826601e-01
  -8.8316350e-01
  -8.9771186e-01
  -9.0804658e-01
  -9.0093738e-01
  -8.9105180e-01
  -9.0010771e-01
  -9.2211406e-01
  -9.5188058e-01
  -9.9331100e-01
  -1.0250245e+00
  -1.0574200e+00
  -1.1122576e+00
  -1.1927323e+00
  -1.2692765e+00
  -1.3383840e+00
  -1.3999709e+00
  -1.4661839e+00
  -1.5402667e+00
  -1.6170900e+00
  -1.6738477e+00
  -1.7081053e+00
  -1.7408643e+00
  -1.7731710e+00
  -1.8016434e+00
  -1.8289455e+00
  -1.8464898e+00
  -1.8181380e+00
  -1.7838491e+00
  -1.7490547e+00
  -1.7131350e+00
  -1.6628647e+00
  -1.5988742e+00
  -1.5169911e+00
  -1.4289900e+00
  -1.3560165e+00
  -1.2803824e+00
  -1.1826373e+00
  -1.0710167e+00
  -9.6301721e-01
  -8.5844275e-01
  -7.4936964e-01
  -6.3955699e-01
  -5.2016772e-01
  -3.8211288e-01
  -2.5859548e-01
  -1.5336873e-01
  -4.2915278e-02
   8.7964163e-02
   2.2386911e-01
   3.7084954e-01
   5.1693192e-01
   6.4829523e-01
   7.8755870e-01
   9.4122277e-01
   1.0962656e+00
   1.2458530e+00
   1.3810184e+00
   1.5045565e+00
   1.6288011e+00
   1.7651420e+00
   1.9021341e+00
   2.0150551e+00
   2.0994252e+00
   2.1787655e+00
   2.2560968e+00
   2.3364328e+00
   2.4033874e+00
   2.4450699e+00
   2.4556399e+00
   2.4497302e+00
   2.4340006e+00
   2.3794275e+00
   2.2825325e+00
   2.1546587e+00
   2.0062287e+00
   1.8544979e+00
   1.7072688e+00
   1.5427606e+00
   1.3511956e+00
   1.1476840e+00
   9.3554654e-01
   7.2223652e-01
   5.0881376e-01
   2.9533254e-01
   6.8684583e-02
  -1.5499923e-01
  -3.3555663e-01
  -4.7707823e-01
  -6.0165674e-01
  -7.2098196e-01
  -8.4476159e-01
  -9.6462419e-01
  -1.0631880e+00
  -1.1503919e+00
  -1.2372033e+00
  -1.3238503e+00
  -1.3914275e+00
  -1.4416012e+00
  -1.4813401e+00
  -1.5240493e+00
  -1.5673403e+00
  -1.6088399e+00
  -1.6401227e+00
  -1.6508614e+00
  -1.6590134e+00
  -1.6753966e+00
  -1.6928933e+00
  -1.6994703e+00
  -1.6891460e+00
  -1.6458350e+00
  -1.5954172e+00
  -1.5468564e+00
  -1.5035484e+00
  -1.4541370e+00
  -1.3992624e+00
  -1.3389202e+00
  -1.2853610e+00
  -1.2412912e+00
  -1.2038489e+00
  -1.1502796e+00
  -1.0808080e+00
  -1.0175493e+00
  -9.6886172e-01
  -9.3621366e-01
  -9.1037644e-01
  -8.8223428e-01
  -8.3515800e-01
  -7.9345623e-01
  -7.6599193e-01
  -7.4597902e-01
  -7.2319678e-01
  -7.0223608e-01
  -6.8456189e-01
  -6.6703796e-01
  -6.6505357e-01
  -6.5837189e-01
  -6.3637706e-01
  -6.0499633e-01
  -5.9480943e-01
  -6.0082847e-01
  -6.1603483e-01
  -6.3276548e-01
  -6.2826414e-01
  -6.1110067e-01
  -6.0951148e-01
  -6.0898194e-01
  -6.0524247e-01
  -6.0196726e-01
  -5.9905054e-01
  -5.9159830e-01
  -5.9346404e-01
  -6.0863950e-01
  -6.1126703e-01
  -6.0556388e-01
  -5.9255748e-01
  -5.8918596e-01
  -5.9114773e-01
  -5.9882006e-01
  -5.9702780e-01
  -5.7957390e-01
  -5.6680689e-01
  -5.6009369e-01
  -5.6259248e-01
  -5.5642186e-01
  -5.5104228e-01
  -5.4261783e-01
  -5.4065002e-01
  -5.5203790e-01
  -5.6803220e-01
  -5.6964034e-01
  -5.5387933e-01
  -5.4074096e-01
  -5.3264202e-01
  -5.4135241e-01
  -5.5570554e-01
  -5.6003439e-01
  -5.4995291e-01
  -5.5415157e-01
  -5.7033825e-01
  -5.8208136e-01
  -5.8638499e-01
  -5.8830650e-01
  -5.7478871e-01
  -5.6055520e-01
  -5.7225328e-01
  -5.8934641e-01
  -5.8686988e-01
  -5.6328971e-01
  -5.5043440e-01
  -5.4779588e-01
  -5.5039178e-01
  -5.5191127e-01
  -5.4471902e-01
  -5.3060680e-01
  -5.2846530e-01
  -5.3316077e-01
  -5.3098810e-01
  -5.2177915e-01
  -5.0881192e-01
  -4.8995874e-01
  -4.7892873e-01
  -4.9402820e-01
  -4.9452739e-01
  -4.8396359e-01
  -4.7007371e-01
  -4.4939938e-01
  -4.4219321e-01
  -4.4852161e-01
  -4.5845478e-01
  -4.4303480e-01
  -4.3035368e-01
  -4.3689601e-01
  -4.5218613e-01
  -4.6191427e-01
  -4.5482927e-01
  -4.4523374e-01
  -4.4140862e-01
  -4.5123180e-01
  -4.6116886e-01
  -4.5554420e-01
  -4.4071639e-01
  -4.2743248e-01
  -4.2475659e-01
  -4.2907630e-01
  -4.3635838e-01
  -4.3158551e-01
  -4.0650126e-01
  -3.9015912e-01
  -3.9531842e-01
  -4.0129659e-01
  -4.0208789e-01
  -3.9813839e-01
  -3.8482521e-01
  -3.7873367e-01
  -3.9146524e-01
  -3.9257689e-01
  -3.8867784e-01
  -3.8065049e-01
  -3.7656956e-01
  -3.7402820e-01
  -3.7487610e-01
  -3.8727834e-01
  -3.8314379e-01
  -3.5987599e-01
  -3.4726300e-01
  -3.4239537e-01
  -3.3200585e-01
  -3.1649376e-01
  -2.9946704e-01
  -2.8075417e-01
  -2.7098313e-01
  -2.7360675e-01
  -2.6645289e-01
  -2.4451899e-01
  -2.2538067e-01
  -2.0719007e-01
  -1.9862621e-01
  -1.9204549e-01
  -1.8063570e-01
  -1.4987222e-01
  -1.2231227e-01
  -1.1155351e-01
  -1.1649976e-01
  -1.1177964e-01
  -9.7046122e-02
  -6.4868820e-02
  -4.0452276e-02
  -4.5358287e-02
  -4.1719868e-02
  -2.1126263e-02
   1.1076074e-02
   3.9356949e-02
   5.7763980e-02
   6.3012608e-02
   6.2883372e-02
   6.5666008e-02
   8.3000892e-02
   1.0044753e-01
   1.0496081e-01
   1.1265207e-01
   1.3462883e-01
   1.6462690e-01
   1.9207185e-01
   2.0990756e-01
   2.0382872e-01
   1.9892029e-01
   2.1733730e-01
   2.5622987e-01
   2.8185404e-01
   2.9809322e-01
   3.0367425e-01
   3.0808978e-01
   3.3447906e-01
   3.6273379e-01
   3.8485603e-01
   3.9479890e-01
   3.9884647e-01
   4.0683683e-01
   4.2469411e-01
   4.4681840e-01
   4.5994272e-01
   4.6340599e-01
   4.8026088e-01
   5.1039513e-01
   5.3329810e-01
   5.6129559e-01
   5.7682341e-01
   5.8404319e-01
   5.9448827e-01
   6.2752979e-01
   6.5181390e-01
   6.6404429e-01
   6.6850177e-01
   6.7945773e-01
   6.9312792e-01
   7.1341382e-01
   7.3460087e-01
   7.3761924e-01
   7.4519304e-01
   7.6466355e-01
   7.9385458e-01
   8.2502844e-01
   8.3769640e-01
   8.4136413e-01
   8.4097666e-01
   8.5247073e-01
   8.7290948e-01
   8.7382331e-01
   8.6639231e-01
   8.6128610e-01
   8.6388252e-01
   8.7992640e-01
   9.0096643e-01
   9.1202728e-01
   8.9845292e-01
   8.8658629e-01
   8.8254767e-01
   8.8309626e-01
   8.7325200e-01
   8.5166047e-01
   8.2787718e-01
   8.0311569e-01
   7.9187046e-01
   7.8543885e-01
   7.6420368e-01
   7.1506043e-01
   6.7221028e-01
   6.4168712e-01
   6.2140892e-01
   6.1071908e-01
   5.8503919e-01
   5.4341596e-01
   5.1416300e-01
   4.9948114e-01
   4.8348844e-01
   4.6173922e-01
   4.2364445e-01
   3.7863473e-01
   3.3783926e-01
   3.1619425e-01
   2.9232323e-01
   2.5527405e-01
   2.0724175e-01
   1.6178097e-01
   1.3054168e-01
   1.2023190e-01
   1.0213623e-01
   5.8698373e-02
   2.2572702e-02
   5.7531896e-03
  -3.9790716e-03
  -2.5487256e-02
  -5.3630137e-02
  -9.0433921e-02
  -1.2968673e-01
  -1.5671031e-01
  -1.6750894e-01
  -1.9225417e-01
  -2.3182894e-01
  -2.6462561e-01
  -2.7907042e-01
  -2.7968617e-01
  -2.8199947e-01
  -2.9894812e-01
  -3.3355773e-01
  -3.5291092e-01
  -3.6674314e-01
  -3.6968052e-01
  -3.7685161e-01
  -3.9395833e-01
  -4.1852383e-01
  -4.3426885e-01
  -4.3053737e-01
  -4.2323082e-01
  -4.2704443e-01
  -4.3769030e-01
  -4.5042056e-01
  -4.6012935e-01
  -4.6295527e-01
  -4.7029425e-01
  -4.9074290e-01
  -5.2398004e-01
  -5.4117068e-01
  -5.3539784e-01
  -5.2488419e-01
  -5.2225490e-01
  -5.3113048e-01
  -5.4077587e-01
  -5.3651609e-01
  -5.1361448e-01
  -5.0761377e-01
  -5.2217959e-01
  -5.3580438e-01
  -5.4141592e-01
  -5.3760212e-01
  -5.2753427e-01
  -5.2316515e-01
  -5.3713102e-01
  -5.5486823e-01
  -5.6093760e-01
  -5.4806472e-01
  -5.4434984e-01
  -5.5337192e-01
  -5.6501361e-01
  -5.6805510e-01
  -5.5910665e-01
  -5.4100166e-01
  -5.4431134e-01
  -5.5846734e-01
  -5.7339359e-01
  -5.8376298e-01
  -5.8387054e-01
  -5.7670233e-01
  -5.7942256e-01
  -5.9204741e-01
  -5.9328694e-01
  -5.8625710e-01
  -5.8228658e-01
  -5.8931752e-01
  -5.9542266e-01
  -6.0340847e-01
  -6.1000885e-01
  -6.0507897e-01
  -6.0202938e-01
  -6.1027165e-01
  -6.2530186e-01
  -6.4458433e-01
  -6.5003198e-01
  -6.3553436e-01
  -6.1503053e-01
  -6.1570127e-01
  -6.3307796e-01
  -6.3561441e-01
  -6.1736845e-01
  -6.0034923e-01
  -5.9524449e-01
  -6.0432613e-01
  -6.2233710e-01
  -6.2585413e-01
  -6.0959020e-01
  -6.0665545e-01
  -6.2756134e-01
  -6.5351869e-01
  -6.6316422e-01
  -6.6064226e-01
  -6.5399919e-01
  -6.4873566e-01
  -6.5412713e-01
  -6.4351417e-01
  -6.2205772e-01
  -6.0117517e-01
  -5.9820840e-01
  -5.9701432e-01
  -5.9256311e-01
  -5.9907771e-01
  -5.9925298e-01
  -5.8689719e-01
  -5.8492202e-01
  -5.9922037e-01
  -6.0982818e-01
  -6.0276262e-01
  -5.9098892e-01
  -5.8425954e-01
  -5.8233312e-01
  -5.9015224e-01
  -5.9063615e-01
  -5.7431349e-01
  -5.6731835e-01
  -5.6599176e-01
  -5.7665848e-01
  -5.8641348e-01
  -5.8582242e-01
  -5.6642457e-01
  -5.5894094e-01
  -5.6853553e-01
  -5.8822978e-01
  -6.0078299e-01
  -6.0484352e-01
  -6.0573101e-01
  -6.0424778e-01
  -6.1730462e-01
  -6.3165919e-01
  -6.2881393e-01
  -6.0490033e-01
  -5.9245960e-01
  -5.9343055e-01
  -6.0852852e-01
  -6.2406370e-01
  -6.2231352e-01
  -6.0101493e-01
  -5.9337404e-01
  -6.0858962e-01
  -6.2732478e-01
  -6.3674926e-01
  -6.2550709e-01
  -6.1729853e-01
  -6.2435645e-01
  -6.5297219e-01
  -6.6756040e-01
  -6.5604833e-01
  -6.3140486e-01
  -6.2026975e-01
  -6.2630188e-01
  -6.3334608e-01
  -6.3435566e-01
  -6.1807993e-01
  -6.0259121e-01
  -6.0350218e-01
  -6.0228418e-01
  -6.0106617e-01
  -5.9984816e-01
  -5.9863016e-01
  -5.9741215e-01
  -5.9619414e-01
  -5.9497613e-01
  -5.9375813e-01
  -5.9254012e-01
  -5.9132211e-01
  -5.9010410e-01
  -5.8888610e-01
  -5.8766809e-01
  -5.8645008e-01
  -5.8523207e-01
  -5.8401407e-01
  -5.8279606e-01
  -5.8157805e-01
  -5.8036004e-01
  -5.7914204e-01
  -5.7792403e-01
  -5.7670602e-01
  -5.7548801e-01
  -5.7427001e-01
  -5.7305200e-01
  -5.7183399e-01
  -5.7061599e-01
  -5.6939798e-01
  -5.6817997e-01
  -5.6696196e-01
  -5.6574396e-01
  -5.6452595e-01
  -5.6330794e-01
  -5.6208993e-01
  -5.6087193e-01
  -5.5965392e-01
  -5.5843591e-01
  -5.5721790e-01
  -5.5599990e-01
  -5.5478189e-01
  -5.5356388e-01
  -5.5234587e-01
  -5.5112787e-01
  -5.4990986e-01
  -5.4869185e-01
  -5.4747384e-01
  -5.4625584e-01
  -5.4503783e-01
  -5.4381982e-01
  -5.4260182e-01
  -5.4138381e-01
  -5.4016580e-01
  -5.3894779e-01
  -5.3772979e-01
  -5.3651178e-01
  -5.3529377e-01
  -5.3407576e-01
  -5.3285776e-01
  -5.3163975e-01
