0.0782847550740118,0.183122234091256,0.287807111246757,0.365786662597284,0.413093239737525,0.441782389745155,0.482069281245231,0.564474286586296,0.699984739813826,0.877765908744087,1.0639401800702,1.21776285670685,1.31909049290401,1.36899130169388,1.38058904318633,1.36639707004425,1.32687318785289,1.26171219288875,1.1686250572257,1.0335724095834,0.850602777353884,0.632839920647032,0.404852739203418,0.204944300320464,0.071265069433847,0.0184648252708682,0.0340302151686249,0.0792003662444681,0.108957729284297,0.0985808026857927,0.0437967343201586,-0.0349458263390814,-0.0950709598657105,-0.104074469708531,-0.0563100869830613,0.0257897146345184,0.100259423164962,0.132611017854418,0.112314970242637,0.049443003204639,-0.0222798718144362,-0.0627193651762553,-0.0497482069281246,0.0125133526629024,0.0894246909812298,0.138257286738898,0.137646879291927,0.0891194872577444,0.0172440103769265,-0.0383030672974211,-0.0497482069281246,-0.0105295284602473,0.061651152144056,0.128185563863879,0.154280482221883,0.129558980619563,0.0645505875171676,-0.00686708377842221,-0.0468487715550131,-0.035708835647795,0.0215168625057225,0.0943079505569967,0.142835342591179,0.143903555623378,0.0956813673126811,0.020143445750038,-0.0402868915000764,-0.0547840683656342,-0.017091408515184,0.052647642301236,0.115061803754006,0.137494277430185,0.11246757210438,0.0503586143750953,-0.0172440103769267,-0.0524950404394935,-0.0366244468182513,0.0248741034640621,0.101632839920647,0.152907065466199,0.156722112009766,0.113535785136579,0.0453227529375857,-0.00900350984282019,-0.0190752327178393,0.0231954829848923,0.0996490157179916,0.169082862810926,0.1968564016481,0.173203113077979,0.108347321837326,0.0361666412330229,-0.00289943537311166,0.010071722875019,0.069128643369449,0.142682740729437,0.190294521593163,0.192583549519304,0.152296658019228,0.088814283534259,0.0360140393712802,0.0219746680909506,0.0563100869830611,0.12543873035251,0.192430947657561,0.223256523729589,0.205096902182206,0.145582176102548,0.0772165420418128,0.0413551045322752,0.0576835037387455,0.119639859606287,0.195788188615901,0.246146802990996,0.250724858843278,0.210743171066687,0.146345185411262,0.0949183580039675,0.0862200518846329,0.126201739661224,0.198077216542042,0.264459026400122,0.294368991301694,0.280024416297879,0.228750190752327,0.168472455363955,0.135815656951015,0.150007630093087,0.208454143140546,0.284449870288417,0.337860521898367,0.347321837326415,0.313139020296047,0.252861284907676,0.201129253776896,0.188463299252251,0.225392949793987,0.298336639707004,0.369449107279109,0.403479322447734,0.388524339996948,0.332672058599115,0.266900656188005,0.22890279261407,0.237295895009919,0.290553944758126,0.364413245841599,0.419349916068976,0.430032046390966,0.394475812604914,0.329314817640775,0.270410499008088,0.250114451396307,0.278193193956966,0.338165725621852,0.394628414466656,0.41843430489852,0.401190294521593,0.348237448496872,0.282618647947505,0.236685487562948,0.23058141309324,0.265832443155806,0.320463909659698,0.357546162063177,0.353578513657866,0.305051121623684,0.226918968411414,0.153975278498398,0.118571646574088,0.131237601098733,0.181443613612086,0.235464672669006,0.257286738898214,0.232412635434152,0.1664886311613,0.0863726537463756,0.0299099649015717,0.0215168625057225,0.0624141614527696,0.126812147108195,0.173966122386693,0.178086372653746,0.135663055089272,0.0631771707614832,-0.00152601861742724,-0.0260949183580041,-0.000610407446970964,0.0619563558675415,0.126812147108195,0.158248130627194,0.142835342591179,0.086677857469861,0.0148023805890431,-0.0354036319243096,-0.0395238821913628,0.00488325957576671,0.075537921562643,0.132458415992675,0.147566000305204,0.114146192583549,0.0470013734167556,-0.0175492141004121,-0.0450175492141005,-0.0230428811231498,0.0366244468182511,0.101632839920647,0.137646879291927,0.13047459179002,0.0831680146497786,0.0180070196856401,-0.0282313444224021,-0.0308255760720282,0.0117503433541888,0.0766061345948419,0.125896535937738,0.135968258812757,0.105142682740729,0.0476117808637264,-0.00763009308713577,-0.0332672058599116,-0.0152601861742714,0.0415077063940179,0.106973905081642,0.143903555623378,0.135815656951015,0.0865252556081183,0.0206012513352662,-0.0233480848466352,-0.0215168625057227,0.0247215016023194,0.0935449412482831,0.148786815199145,0.164352205096902,0.134747443918816,0.0732488936365022,0.0143445750038149,-0.00717228750190763,0.019075232717839,0.0784373569357545,0.138562490462384,0.169998473981382,0.162826186479475,0.119487257744544,0.0584465130474591,0.0141919731420722,0.0115977414924461,0.0523424385777505,0.114909201892263,0.163283992064703,0.173660918663208,0.142987944452922,0.0822524034793223,0.0206012513352662,-0.00900350984282019,0.0082405005341064,0.0672974210285364,0.137036471844956,0.178086372653746,0.171066687013581,0.119334655882802,0.047306577140241,-0.00656188005493678,-0.017091408515184,0.0196856401648099,0.0875934686403173,0.149092018922631,0.171677094460552,0.144513963070349,0.0792003662444681,0.0122081489394169,-0.018159621547383,0.000305203723485315,0.0563100869830611,0.118571646574088,0.153059667327941,0.144819166793835,0.0970547840683655,0.0320463909659697,-0.013886769418587,-0.0161757973447277,0.026552723943232,0.0935449412482831,0.14848161147566,0.165267816267358,0.140088509079811,0.083473218373264,0.0242636960170913,-0.00427285212879608,0.0137341675568441,0.072333282466046,0.140088509079811,0.179001983824203,0.17152449259881,0.121623683808942,0.052647642301236,0.000152601861742602,-0.0105295284602473,0.0250267053258049,0.0907981077369143,0.150007630093087,0.172745307492751,0.150923241263543,0.0943079505569967,0.0328094002746832,0.00198382420265516,0.0175492141004119,0.0740119029452158,0.142987944452922,0.187700289943537,0.189378910422707,0.15016023195483,0.0915611170456278,0.0489851976194108,0.0485273920341827,0.094155348695254,0.168014649778727,0.235312070807264,0.268121471081947,0.25591332214253,0.202960476117809,0.138104684877155,0.10010682130322,0.107889516252098,0.157637723180223,0.22157790325042,0.262169998473981,0.259117961239127,0.213947810163284,0.14680299099649,0.0932397375247977,0.0811841904471233,0.11643522050969,0.182054021059057,0.242026552723943,0.267053258049748,0.248283229055394,0.193956966274988,0.132458415992675,0.0973599877918509,0.104684877155501,0.152144056157485,0.216389439951167,0.259728368686098,0.25927056310087,0.213337402716313,0.139172897909354,0.0729436899130168,0.0465435678315274,0.0703494582633907,0.130016786204792,0.188463299252251,0.212421791545857,0.188921104837479,0.125133526629025,0.0512742255455515,0.00518846329925214,0.00503586143750943,0.0489851976194108,0.112620173966122,0.15748512131848,0.159621547382878,0.11643522050969,0.0454753547993284,-0.0146497787273006,-0.0311307797955136,0.00274683351136873,0.0683656340607354,0.130016786204792,0.157942926903708,0.141309323973752,0.0862200518846329,0.020143445750038,-0.0201434457500383,-0.0141919731420724,0.0381504654356782,0.111399359072181,0.163283992064703,0.169998473981382,0.13215321226919,0.0677552266137646,0.0106821303219898,-0.00854570425759205,0.0181596215473828,0.0796581718296962,0.142682740729437,0.17381352052495,0.158095528765451,0.100869830611933,0.0323515946894551,-0.00808789867236391,-0.00137341675568453,0.050511216236838,0.122997100564627,0.177933770792004,0.190904929040134,0.158400732488936,0.0964443766213947,0.0404394933618189,0.0216694643674652,0.0497482069281244,0.111857164657409,0.173966122386693,0.203876087288265,0.189378910422707,0.135510453227529,0.0674500228902791,0.0218220662292079,0.0213642606439797,0.0672974210285364,0.135815656951015,0.186784678773081,0.194872577445445,0.156569510148024,0.0883564779490309,0.0253319090492903,0.000152601861742602,0.026552723943232,0.0970547840683655,0.18052800244163,0.243399969479628,0.272546925072486,0.274530749275141,0.276667175339539,0.316496261254387,0.414924462078437,0.570730962917747,0.757210437967343,0.929803143598352,1.05951472607966,1.14054631466504,1.18602166946437,1.22798718144361,1.2922325652373,1.37005951472608,1.42224935144209,1.40592095223562,1.2994048527392,1.10987334045475,0.862047916984587,0.599114909201892,0.374484968716618,0.223103921867847,0.15244925988097,0.140698916526782,0.144361361208607,0.129253776896078,0.083473218373264,0.0115977414924461,-0.0581413093239739,-0.0923241263543416,-0.0746223103921869,-0.0131237601098735,0.0589043186326872,0.103311460399817,0.102548451091103,0.061651152144056,0.00457805585228129,-0.0354036319243096,-0.0372348542652221,0.00167862047916973,0.0636349763467113,0.115061803754006,0.131542804822219,0.105905692049443,0.0471539752784983,-0.0132763619716162,-0.0419655119792463,-0.0257897146345187,0.0270105295284601,0.08774607050206,0.124523119182054,0.12208148939417,0.0801159774149243,0.0181596215473828,-0.0277735388371739,-0.032504196551198,0.00656188005493656,0.0706546619868761,0.123912711735083,0.140851518388524,0.115672211200977,0.0578361056004882,-0.00396764840531066,-0.0369296505417367,-0.0231954829848925,0.0360140393712802,0.110331146039982,0.157942926903708,0.15748512131848,0.109720738593011,0.0387608728826491,-0.0157179917594996,-0.0264001220814895,0.0125133526629024,0.0840836258202349,0.149549824507859,0.176102548451091,0.152754463604456,0.0901877002899434,0.0238058904318632,-0.00854570425759205,0.00808789867236369,0.0663818098580801,0.135052647642301,0.178696780100717,0.178696780100717,0.134289638333588,0.0663818098580801,0.0143445750038149,0.00610407446970842,0.0463909659697847,0.115672211200977,0.176407752174576,0.198992827712498,0.176407752174576,0.118724248435831,0.0563100869830611,0.0251793071875476,0.0424233175644742,0.100717228750191,0.168472455363955,0.209674958034488,0.208606745002289,0.166183427437815,0.103311460399817,0.0564626888448038,0.051579429269037,0.0935449412482831,0.164962612543873,0.228597588890584,0.25423470166336,0.234396459636807,0.179307187547688,0.119487257744544,0.0897298947047153,0.10743171066687,0.168319853502213,0.242942163894399,0.292690370822524,0.296505417366092,0.253166488631161,0.184953456432168,0.133068823439646,0.12543873035251,0.166793834884785,0.23958492293606,0.306271936517625,0.335571493972226,0.317869678010072,0.263390813367923,0.204333892873493,0.177475965206775,0.198077216542042,0.258049748206928,0.327941400885091,0.373111551960934,0.377231802227987,0.338928734930566,0.274378147413398,0.220204486494735,0.206317717076148,0.241568747138715,0.310544788646421,0.375553181748817,0.403784526171219,0.385167099038608,0.328094002746833,0.262322600335724,0.224172134900046,0.233786052189837,0.288570120555471,0.359682588127575,0.406836563406073,0.408515183885243,0.363955440256371,0.292690370822524,0.231802227987181,0.208301541278803,0.229665801922783,0.283229055394476,0.335113688386998,0.35266290248741,0.322447733862353,0.25087746070502,0.170761483290096,0.121318480085457,0.119945063329773,0.161300167862048,0.217762856706852,0.253013886769418,0.246604608576225,0.196245994201129,0.119029452159316,0.0517320311307797,0.0248741034640621,0.0476117808637264,0.10407446970853,0.15748512131848,0.175797344727606,0.148176407752174,0.0817945978940942,0.00656188005493656,-0.0393712803296201,-0.0369296505417367,0.00900350984281997,0.0698916526781626,0.107584312528613,0.103464062261559,0.0613459484205706,-1.11022302462516e-16,-0.0500534106516101,-0.0640927819319397,-0.0352510300625669,0.0230428811231496,0.0798107736914389,0.106973905081642,0.0943079505569967,0.0456279566610712,-0.0135815656951016,-0.0491377994811538,-0.0425759194262171,0.00305203723485415,0.0656188005493666,0.109568136731268,0.114451396307035,0.0795055699679535,0.019075232717839,-0.033572409583397,-0.0495956050663819,-0.022432473676179,0.0350984282008239,0.0929345338013123,0.121928887532428,0.110331146039982,0.0618037540057988,0.000305203723485315,-0.0407446970853046,-0.0407446970853046,0.00274683351136873,0.0685182359224781,0.117961239127117,0.127422554555165,0.0933923393865404,0.0294521593163435,-0.0296047611780865,-0.0512742255455518,-0.0248741034640624,0.0384556691591636,0.1057530901877,0.141614527697238,0.130169388066534,0.0761483290096138,0.00793529681062098,-0.0369296505417367,-0.0364718449565086,0.011139935907218,0.082405005341065,0.137341675568442,0.149855028231344,0.11643522050969,0.0514268274072943,-0.0100717228750192,-0.035708835647795,-0.0135815656951016,0.0459331603845566,0.110941553486952,0.146497787273005,0.137646879291927,0.0875934686403173,0.0204486494735235,-0.0259423164962614,-0.0264001220814895,0.0209064550587516,0.0921715244925987,0.148023805890432,0.163436593926446,0.132916221577903,0.0676026247520219,0.00274683351136873,-0.0254845109110332,-0.00488325957576694,0.0556996795360902,0.123912711735083,0.161300167862048,0.151533648710514,0.100412025026705,0.0335724095833968,-0.0129711582481307,-0.0163283992064704,0.0268579276667174,0.0949183580039675,0.149092018922631,0.16313139020296,0.131237601098733,0.0660766061345947,0.00335724095833958,-0.0225850755379217,-0.0021364260643981,0.0543262627804058,0.116893026094918,0.150770639401801,0.140698916526782,0.0900350984282007,0.0228902792614069,-0.0244162978788342,-0.0294521593163438,0.0112925377689607,0.0790477643827254,0.134289638333588,0.148329009613917,0.115061803754006,0.047306577140241,-0.0184648252708684,-0.0471539752784985,-0.0257897146345187,0.0358614375095375,0.105905692049443,0.146650389134747,0.140393712803296,0.089882496566458,0.0193804364413245,-0.0317411872424845,-0.037845261712193,0.00518846329925214,0.0761483290096138,0.134900045780558,0.153517472913169,0.126506943384709,0.0654661986876239,0.00503586143750943,-0.0187700289943538,0.0082405005341064,0.0776743476270409,0.156264306424538,0.204333892873493,0.204333892873493,0.158858538074164,0.0904929040134288,0.0366244468182511,0.0239584922936059,0.0579887074622309,0.119487257744544,0.17152449259881,0.187395086220052,0.160994964138562,0.102853654814589,0.0444071417671294,0.0181596215473828,0.0378452617121928,0.0970547840683655,0.165573019990844,0.206622920799634,0.20418129101175,0.160384556691592,0.0958339691744238,0.0466961696932701,0.0370822524034792,0.0708072638486188,0.130016786204792,0.179917594994659,0.193651762551503,0.162215779032504,0.0932397375247977,0.0195330383030672,-0.0198382420265528,-0.00930871356630562,0.0431863268731877,0.105447886464215,0.140088509079811,0.130779795513505,0.0807263848618952,0.011139935907218,-0.0437967343201588,-0.0593621242179156,-0.0300625667633146,0.0280787425606591,0.0804211811384098,0.0976651915153364,0.071265069433847,0.00915611170456268,-0.0567678925682894,-0.0914085151838853,-0.0796581718296964,-0.0259423164962614,0.0424233175644742,0.0874408667785746,0.08774607050206,0.0428811231497023,-0.0257897146345187,-0.0802685792766673,-0.0920189226308562,-0.0541736609186633,0.0154127880360139,0.0778269494887836,0.101175034335419,0.0756905234243857,0.0108347321837325,-0.0590569204944301,-0.0964443766213949,-0.0845414314054632,-0.0283839462841448,0.044101938043644,0.0943079505569967,0.100564626888448,0.0611933465588279,-0.00579887074622321,-0.0627193651762553,-0.0781321532122693,-0.0428811231497025,0.0271631313902028,0.094155348695254,0.124217915458568,0.106363497634671,0.04837479017244,-0.0195330383030674,-0.0605829391118573,-0.054326262780406,-0.00183122234091267,0.0692812452311917,0.117656035403632,0.120555470776743,0.0776743476270409,0.00793529681062098,-0.0517320311307799,-0.0718754768808181,-0.0439493361819015,0.0175492141004119,0.0776743476270409,0.103464062261559,0.0842362276819776,0.0271631313902028,-0.0381504654356784,-0.0723332824660462,-0.0538684571951779,0.0175492141004119,0.121013276361971,0.220967495803449,0.294674195025179,0.338318327483595,0.366244468182512,0.412635434152297,0.504654356783153,0.646879291927361,0.823897451548909,0.998779185106058,1.13520524950404,1.21913627346254,1.25179307187548,1.24233175644743,1.19777201281856,1.1246757210438,1.03509842820082,0.92858232870441,0.789409430795056,0.612391271173508,0.408820387608729,0.205402105905692,0.0418129101175033,-0.0537158553334352,-0.0778269494887839,-0.0500534106516101,-0.011750343354189,-0.00289943537311166,-0.0375400579887076,-0.108042118113841,-0.184343048985198,-0.229207996337555,-0.223103921867847,-0.168319853502213,-0.0901877002899436,-0.0299099649015719,-0.0140393712803297,-0.0474591790019839,-0.114298794445292,-0.176255150312834,-0.198077216542042,-0.168472455363956,-0.101480238058904,-0.034640622615596,-0.00366244468182523,-0.0201434457500383,-0.0784373569357547,-0.152296658019228,-0.200824050053411,-0.199603235159469,-0.148786815199146,-0.0741645048069588,-0.016023195482985,-0.00152601861742724,-0.0366244468182513,-0.104684877155501,-0.167404242331757,-0.190904929040134,-0.16252098275599,-0.0935449412482833,-0.0219746680909508,0.0141919731420722,0.00106821303219888,-0.0550892720891196,-0.126812147108195,-0.172897909354494,-0.169082862810926,-0.119029452159316,-0.0495956050663819,0.00152601861742702,0.0112925377689607,-0.0233480848466352,-0.0874408667785748,-0.146650389134748,-0.170608881428354,-0.148176407752175,-0.0883564779490311,-0.0241110941553488,0.00854570425759183,-0.00396764840531066,-0.0587517167709447,-0.129864184343049,-0.17549214100412,-0.172287501907523,-0.123760109873341,-0.0535632534716925,0.000610407446970742,0.0134289638333587,-0.0196856401648101,-0.0854570425759195,-0.149244620784374,-0.17717076148329,-0.154890889668854,-0.0903403021516864,-0.0190752327178393,0.0198382420265526,0.0125133526629024,-0.0376926598504503,-0.106973905081642,-0.155043491530597,-0.157179917594995,-0.112314970242637,-0.0412025026705327,0.0181596215473828,0.0369296505417365,0.00778269494887826,-0.0549366702273769,-0.115672211200977,-0.140393712803296,-0.115672211200977,-0.0503586143750955,0.0213642606439797,0.0622615595910269,0.0564626888448038,0.00610407446970842,-0.065008393102396,-0.115977414924462,-0.118571646574088,-0.0706546619868764,0.00457805585228129,0.0685182359224781,0.0918663207691133,0.0666870135815656,0.00442545399053857,-0.0587517167709447,-0.0862200518846331,-0.0627193651762553,0.00228902792614059,0.0756905234243857,0.120860674500229,0.12208148939417,0.0819471997558369,0.0218220662292079,-0.0199908438882955,-0.0189226308560966,0.0262475202197466,0.0949183580039675,0.151686250572257,0.171219288875324,0.147260796581718,0.0907981077369143,0.0334198077216541,0.00625667633145113,0.0218220662292079,0.0753853197009002,0.138562490462384,0.175644742865863,0.169693270257897,0.121928887532428,0.0531054478864641,0.00213642606439787,-0.00396764840531066,0.0378452617121928,0.10743171066687,0.163894399511674,0.176407752174576,0.141461925835495,0.0756905234243857,0.0112925377689607,-0.0215168625057227,-0.0119029452159317,0.0326567984129405,0.0837784220967495,0.107126506943385,0.0882038760872881,0.0296047611780863,-0.0471539752784985,-0.105905692049443,-0.122081489394171,-0.0940027468335115,-0.0390660766061347,0.00686708377842199,0.0164810010682129,-0.0175492141004121,-0.0865252556081185,-0.159316343659393,-0.199145429574241,-0.188768502975736,-0.135663055089272,-0.0730962917747598,-0.038913474744392,-0.0505112162368382,-0.106516099496414,-0.18449565084694,-0.244010376926599,-0.256981535174729,-0.21822066229208,-0.146345185411262,-0.0831680146497788,-0.0622615595910271,-0.0918663207691135,-0.160384556691592,-0.23454906149855,-0.275904166030826,-0.266442850602777,-0.211658782237143,-0.140698916526782,-0.0917137189073708,-0.0871356630550894,-0.130016786204792,-0.200061040744697,-0.258049748206928,-0.274072943689913,-0.240195330383031,-0.171982298184038,-0.107889516252098,-0.081489394170609,-0.10178544178239,-0.157637723180223,-0.219441477186022,-0.252403479322448,-0.240347932244773,-0.190294521593164,-0.12879597131085,-0.0894246909812301,-0.0895772928429728,-0.130169388066535,-0.193651762551503,-0.245078589958798,-0.257439340759957,-0.224629940485274,-0.160689760415077,-0.101022432473676,-0.0769113383183276,-0.0972073859301085,-0.155959102701053,-0.226003357240958,-0.268731878528918,-0.26323821150618,-0.212726995269342,-0.144361361208607,-0.095833969174424,-0.0891194872577447,-0.127422554555166,-0.193041355104532,-0.250724858843278,-0.270868304593316,-0.2429421638944,-0.177781168930261,-0.112009766519152,-0.0810315885853808,-0.0978177933770793,-0.156264306424538,-0.224935144208759,-0.265222035708836,-0.258812757515642,-0.210743171066687,-0.14680299099649,-0.102701052952846,-0.0998016175797346,-0.140241110941554,-0.205554707767435,-0.260338776133069,-0.274988554860369,-0.241568747138715,-0.17717076148329,-0.119334655882802,-0.0967495803448803,-0.116130016786205,-0.172134900045781,-0.238516709903861,-0.277735388371738,-0.271783915763772,-0.22325652372959,-0.156111704562796,-0.108957729284297,-0.105447886464215,-0.145582176102549,-0.210743171066687,-0.26659545246452,-0.28460247215016,-0.255760720280788,-0.193346558828018,-0.13215321226919,-0.104532275293759,-0.121623683808943,-0.177475965206776,-0.244010376926599,-0.28292385167099,-0.276056767892568,-0.227071570273157,-0.158553334350679,-0.107279108805128,-0.0965969784831376,-0.128490767587365,-0.187089882496567,-0.237448496871662,-0.248893636502365,-0.212421791545857,-0.142072333282466,-0.0721806806043035,-0.0340302151686252,-0.039981687776591,-0.0877460705020602,-0.152449259880971,-0.196093392339387,-0.196551197924615,-0.152296658019228,-0.0862200518846331,-0.0375400579887076,-0.031435983518999,-0.0688234396459638,-0.133679230886617,-0.191515336487105,-0.211048374790173,-0.181748817335572,-0.116282618647948,-0.0492904013428965,-0.0148023805890433,-0.0265527239432322,-0.08042118113841,-0.148176407752175,-0.189989317869678,-0.18617427132611,-0.139935907218068,-0.0746223103921869,-0.0280787425606593,-0.0250267053258051,-0.0680604303372502,-0.141461925835495,-0.208301541278804,-0.234854265222036,-0.211200976651915,-0.150923241263544,-0.0894246909812301,-0.0613459484205708,-0.0796581718296964,-0.139935907218068,-0.215473828780711,-0.26827407294369,-0.275904166030826,-0.236838089424691,-0.173966122386693,-0.126659545246452,-0.120250267053258,-0.157179917594995,-0.221883106973905,-0.280024416297879,-0.299862658324432,-0.271936517625515,-0.209980161757974,-0.147260796581718,-0.116587822371433,-0.130169388066535,-0.182817030367771,-0.249198840225851,-0.291774759652068,-0.288722722417214,-0.241568747138715,-0.174271326110179,-0.125286128490768,-0.118571646574088,-0.156416908286281,-0.223561727453075,-0.284907675873646,-0.306577140241111,-0.278040592095224,-0.210437967343202,-0.139325499771097,-0.103158858538074,-0.11811384098886,-0.178696780100717,-0.255760720280788,-0.307340149549825,-0.308255760720281,-0.259117961239127,-0.184343048985198,-0.125133526629025,-0.108499923699069,-0.139630703494583,-0.205249504043949,-0.269037082252404,-0.294063787578209,-0.26827407294369,-0.203418281703037,-0.13444224019533,-0.097970395238822,-0.108347321837327,-0.161147566000305,-0.232412635434152,-0.283686860979704,-0.28963833358767,-0.246757210437967,-0.177018159621547,-0.121928887532428,-0.110331146039982,-0.144361361208607,-0.208606745002289,-0.267968869220205,-0.287349305661529,-0.253776896078132,-0.174576529833664,-0.0756905234243859,0.0115977414924461,0.0730962917747595,0.110178544178239,0.142072333282466,0.201587059362124,0.308866168167251,0.463299252250877,0.643369449107279,0.808637265374637,0.928734930566153,0.998168777659087,1.0250267053258,1.02395849229361,1.00015260186174,0.94826796886922,0.870593621242179,0.765145734777964,0.620784373569357,0.43644132458416,0.225392949793987,0.019075232717839,-0.138562490462384,-0.220509690218221,-0.226155959102701,-0.182511826644285,-0.139020296047612,-0.132916221577903,-0.174729131695407,-0.253929497939875,-0.335418892110484,-0.377079200366245,-0.361208606745002,-0.296658019227835,-0.217305051121624,-0.165420418129101,-0.161757973447276,-0.202960476117809,-0.266137646879292,-0.315122844498703,-0.32229513200061,-0.281397833053563,-0.210743171066687,-0.149092018922631,-0.127269952693423,-0.153822676636655,-0.217305051121624,-0.284297268426675,-0.3183274835953,-0.304745917900198,-0.248283229055395,-0.175644742865863,-0.126659545246452,-0.123912711735083,-0.166641233023043,-0.233786052189837,-0.285365481458874,-0.289333129864184,-0.243094765756142,-0.171829696322295,-0.11246757210438,-0.0907981077369145,-0.113383183274836,-0.170608881428354,-0.233480848466351,-0.268884480390661,-0.260338776133069,-0.208911948725775,-0.140088509079811,-0.0943079505569969,-0.0935449412482833,-0.136578666259728,-0.204486494735236,-0.260186174271326,-0.274225545551656,-0.241110941553487,-0.175644742865863,-0.111857164657409,-0.0831680146497788,-0.103616664123302,-0.165878223714329,-0.238364108042118,-0.281703036777049,-0.275446360445598,-0.222188310697391,-0.150770639401801,-0.102090645505875,-0.0973599877918512,-0.135968258812758,-0.199298031435984,-0.251487868151992,-0.263390813367923,-0.229360598199298,-0.164504806958645,-0.103158858538074,-0.0773691439035557,-0.0978177933770793,-0.155653898977568,-0.222035708835648,-0.260491377994812,-0.251487868151992,-0.197314207233328,-0.126201739661224,-0.0770639401800703,-0.0711124675721045,-0.108042118113841,-0.169388066534412,-0.219288875324279,-0.229360598199298,-0.193804364413246,-0.126812147108195,-0.0630245688997407,-0.0347932244773387,-0.0506638180985809,-0.101175034335419,-0.159926751106364,-0.192278345795819,-0.180222798718144,-0.128032962002137,-0.0601251335266291,-0.0103769265985046,0.00152601861742702,-0.0268579276667176,-0.0834732183732643,-0.134289638333588,-0.148329009613917,-0.116130016786205,-0.0495956050663819,0.0175492141004119,0.0512742255455515,0.0404394933618189,-0.00595147260796593,-0.0622615595910271,-0.0949183580039678,-0.0842362276819778,-0.0297573630398292,0.0453227529375857,0.101022432473676,0.11307797955135,0.0808789867236379,0.0210590569204943,-0.0305203723485428,-0.0439493361819015,-0.0132763619716162,0.046238364108042,0.104532275293758,0.131848008545704,0.117045627956661,0.0653135968258812,0.00228902792614059,-0.0361666412330231,-0.031435983518999,0.0137341675568441,0.0764535327330992,0.120097665191515,0.121165878223714,0.0802685792766671,0.0137341675568441,-0.0456279566610714,-0.0685182359224784,-0.0474591790019839,0.00381504654356772,0.0528002441629787,0.069128643369449,0.043033725011445,-0.0186174271326111,-0.0938501449717688,-0.148786815199146,-0.162978788341218,-0.135205249504044,-0.0863726537463758,-0.0515794292690372,-0.0531054478864643,-0.0943079505569969,-0.163741797649931,-0.231497024263696,-0.266137646879292,-0.254539905386846,-0.202350068670838,-0.142072333282466,-0.112772775827865,-0.129253776896078,-0.185563863879139,-0.254997710972074,-0.300778269494888,-0.301693880665344,-0.261101785441782,-0.200824050053411,-0.155043491530597,-0.148329009613917,-0.18449565084694,-0.249198840225851,-0.308560964443766,-0.331756447428659,-0.309781779337708,-0.25362429421639,-0.193346558828018,-0.160231954829849,-0.167099038608271,-0.212879597131085,-0.278040592095224,-0.324736761788494,-0.327483595299863,-0.28460247215016,-0.218678467877308,-0.167556844193499,-0.155653898977568,-0.186326873187853,-0.249046238364108,-0.312528612849077,-0.342285975888906,-0.323515946894552,-0.264153822676637,-0.197009003509843,-0.160079352968106,-0.169082862810926,-0.218831069739051,-0.285365481458874,-0.332214253013887,-0.337555318174882,-0.299862658324432,-0.236532885701206,-0.183732641538227,-0.169388066534412,-0.199908438882954,-0.262017396612239,-0.322600335724096,-0.348847855943843,-0.330077826949489,-0.275141156722112,-0.212421791545857,-0.175186937280635,-0.180222798718144,-0.227529375858386,-0.294826796886922,-0.343201587059362,-0.347474439188158,-0.307187547688082,-0.2429421638944,-0.189989317869678,-0.174423927971921,-0.202044864947352,-0.263848618953151,-0.328857012055547,-0.361971616053716,-0.346864031741187,-0.289943537311155,-0.222035708835648,-0.181748817335572,-0.186784678773081,-0.23393865405158,-0.301388676941859,-0.352357698763925,-0.360598199298031,-0.321837326415382,-0.255455516557302,-0.200061040744697,-0.184343048985198,-0.213032198992828,-0.2733099343812,-0.335266290248741,-0.367617884938196,-0.357240958339692,-0.310086983061193,-0.253319090492904,-0.221883106973905,-0.231344422401953,-0.277430184648253,-0.339844346101023,-0.38638791393255,-0.394933618190142,-0.363192430947658,-0.306119334655883,-0.255760720280788,-0.238669311765604,-0.263848618953151,-0.324736761788494,-0.390965969784831,-0.425453990538685,-0.41171982298184,-0.355867541584007,-0.286128490767587,-0.239127117350832,-0.235159468945521,-0.274683351136884,-0.338165725621853,-0.387761330688234,-0.395238821913627,-0.354494124828323,-0.282466046085762,-0.215779032504197,-0.184190447123455,-0.196398596062872,-0.245536395544026,-0.302456889974058,-0.331146039981688,-0.31497024263696,-0.258812757515642,-0.191057530901877,-0.149702426369602,-0.153670074774912,-0.200518846329925,-0.271173508316802,-0.330383030672974,-0.350526476423012,-0.322142530138868,-0.258812757515642,-0.198229818403785,-0.173050511216237,-0.193193956966275,-0.249961849534564,-0.312376010987334,-0.344269800091561,-0.330077826949489,-0.276209369754311,-0.210437967343202,-0.168930260949184,-0.169998473981383,-0.211658782237143,-0.275904166030826,-0.330383030672974,-0.349305661529071,-0.325347169235465,-0.271173508316802,-0.219288875324279,-0.198687623989013,-0.220204486494735,-0.280024416297879,-0.350679078284755,-0.394781016328399,-0.393407599572715,-0.350068670837784,-0.289790935449413,-0.249504043949336,-0.249656645811079,-0.290859148481612,-0.356783152754464,-0.414161452769724,-0.434152296658019,-0.406683961544331,-0.343964596368076,-0.282008240500534,-0.254692507248589,-0.273767739966428,-0.332214253013887,-0.401190294521593,-0.443308408362582,-0.436746528307645,-0.382115061803754,-0.307187547688082,-0.25423470166336,-0.247978025331909,-0.289790935449413,-0.360445597436289,-0.421638943995117,-0.442392797192126,-0.413703647184496,-0.347169235464673,-0.278345795818709,-0.244010376926599,-0.2575919426217,-0.31268121471082,-0.380589043186327,-0.423775370059515,-0.420875934686403,-0.372653746375706,-0.303830306729742,-0.252250877460705,-0.241416145276972,-0.275141156722112,-0.338623531207081,-0.395849229360598,-0.415229665801923,-0.38638791393255,-0.321074317106669,-0.253929497939875,-0.218525866015565,-0.226766366549672,-0.273767739966428,-0.336792308866168,-0.379978635739356,-0.381046848771555,-0.339081336792309,-0.275904166030826,-0.226918968411415,-0.215473828780711,-0.245688997405768,-0.305508927208912,-0.362582023500687,-0.386082710209065,-0.365176255150313,-0.312070807263849,-0.258049748206928,-0.229818403784526,-0.231649626125439,-0.252403479322448,-0.26827407294369,-0.249351442087594,-0.177628567068518,-0.0528002441629789,0.104227071570273,0.256828933312986,0.379215626430642,0.466503891347474,0.529070654661987,0.592400427285213,0.681977720128185,0.805585228139783,0.948573172592705,1.06745002289028,1.10590569204944,1.03235159468945,0.853349610865252,0.612391271173508,0.368991301693881,0.168014649778727,0.0283839462841446,-0.0595147260796583,-0.127727758278651,-0.200061040744697,-0.284297268426675,-0.376163589195788,-0.45276972379063,-0.488631161300168,-0.474286586296353,-0.419197314207233,-0.356172745307493,-0.320463909659698,-0.325804974820693,-0.367923088661682,-0.424538379368228,-0.46116282618648,-0.457652983366397,-0.414161452769724,-0.351747291316954,-0.304898519761941,-0.294368991301694,-0.321379520830154,-0.374332366854876,-0.424690981229971,-0.443918815809553,-0.422096749580345,-0.365939264459026,-0.303372501144514,-0.267358461773234,-0.272699526934229,-0.316496261254387,-0.376773996642759,-0.417823897451549,-0.417213490004578,-0.37402716313139,-0.308560964443766,-0.257134137036472,-0.243705173203113,-0.270868304593316,-0.326720585991149,-0.381809858080269,-0.405310544788646,-0.385167099038608,-0.329925225087746,-0.269037082252404,-0.235464672669007,-0.242331756447429,-0.286738898214558,-0.349305661529071,-0.395696627498856,-0.401342896383336,-0.362582023500687,-0.297421028536548,-0.242789562032657,-0.226766366549672,-0.25423470166336,-0.312223409125591,-0.369296505417366,-0.392797192125744,-0.368533496108653,-0.304440714176713,-0.234396459636808,-0.195788188615901,-0.202655272394323,-0.250419655119793,-0.315428048222188,-0.360598199298031,-0.360903403021517,-0.314512437051732,-0.241721349000458,-0.179764993132916,-0.156569510148024,-0.177781168930261,-0.232565237295895,-0.28963833358767,-0.314665038913475,-0.293148176407752,-0.233023042881123,-0.163589195788189,-0.1214710819472,-0.122081489394171,-0.160689760415077,-0.215473828780711,-0.253776896078132,-0.253013886769419,-0.211811384098886,-0.149244620784374,-0.0976651915153366,-0.0787425606592402,-0.095833969174424,-0.14115672211201,-0.190447123454906,-0.213947810163284,-0.197161605371586,-0.143445750038151,-0.0773691439035557,-0.033572409583397,-0.0289943537311156,-0.0625667633145125,-0.117045627956661,-0.158705936212422,-0.161300167862048,-0.119945063329773,-0.0509690218220663,0.0109873340454752,0.0384556691591636,0.0227376773996642,-0.0271631313902031,-0.0819471997558371,-0.108347321837327,-0.0911033114603999,-0.032504196551198,0.0410499008087898,0.0926293300778268,0.102548451091103,0.070196856401648,0.0131237601098732,-0.033572409583397,-0.0418129101175035,-0.00427285212879608,0.0636349763467113,0.126506943384709,0.154738287807111,0.139783305356325,0.0885090798107736,0.0289943537311154,-0.00305203723485438,0.00991912101327625,0.0630245688997405,0.128185563863879,0.169235464672669,0.168014649778727,0.124523119182054,0.0563100869830611,-0.00289943537311166,-0.0268579276667176,-0.00824050053410663,0.0404394933618189,0.086677857469861,0.100717228750191,0.0732488936365022,0.0114451396307034,-0.0584465130474593,-0.103158858538074,-0.107126506943385,-0.075080115977415,-0.0300625667633146,-0.00274683351136895,-0.01068213032199,-0.0573783000152603,-0.128643369449107,-0.19121013276362,-0.217152449259881,-0.197772012818556,-0.144819166793835,-0.0930871356630552,-0.0749275141156723,-0.10010682130322,-0.160994964138563,-0.231649626125439,-0.276819777201282,-0.276819777201282,-0.232412635434152,-0.169082862810926,-0.124370517320311,-0.121623683808943,-0.163436593926446,-0.231802227987182,-0.290706546619869,-0.310544788646422,-0.28292385167099,-0.220662292079963,-0.159468945521135,-0.132000610407447,-0.14848161147566,-0.20189226308561,-0.266290248741035,-0.304135510453228,-0.294674195025179,-0.241416145276972,-0.170608881428354,-0.120402868915001,-0.112620173966122,-0.14848161147566,-0.210590569204944,-0.264764230123608,-0.282618647947505,-0.255760720280788,-0.1968564016481,-0.138562490462384,-0.111246757210438,-0.123607508011598,-0.169693270257897,-0.226613764687929,-0.262169998473981,-0.258354951930414,-0.215016023195483,-0.153212269189684,-0.106668701358157,-0.0965969784831376,-0.12543873035251,-0.180070196856402,-0.229971005646269,-0.24690981229971,-0.221730505112162,-0.163741797649931,-0.104227071570273,-0.0744697085304442,-0.0856096444376622,-0.131542804822219,-0.189684114146193,-0.227681977720128,-0.226155959102701,-0.185258660155654,-0.12482832290554,-0.0769113383183276,-0.0624141614527698,-0.0872882649168321,-0.142530138867694,-0.198077216542042,-0.222951320006104,-0.204333892873493,-0.149397222646116,-0.0891194872577447,-0.0573783000152603,-0.0659240042728522,-0.108805127422555,-0.164352205096902,-0.201434457500382,-0.199450633297726,-0.15916374179765,-0.101938043644133,-0.0595147260796583,-0.0528002441629789,-0.084694033267206,-0.142072333282466,-0.193651762551503,-0.211200976651915,-0.187700289943537,-0.133221425301389,-0.0758431252861286,-0.0474591790019839,-0.0595147260796583,-0.104227071570273,-0.162368380894247,-0.204639096596979,-0.209064550587517,-0.171829696322295,-0.112314970242637,-0.0640927819319397,-0.0502060125133528,-0.075080115977415,-0.128490767587365,-0.1822066229208,-0.206928124523119,-0.190141919731421,-0.13779948115367,-0.0775217457652984,-0.0422707157027317,-0.0459331603845568,-0.0872882649168321,-0.148634213337403,-0.195940790477644,-0.20418129101175,-0.169693270257897,-0.11078895162521,-0.0602777353883718,-0.0428811231497025,-0.0657714024111095,-0.120250267053258,-0.177933770792004,-0.207996337555318,-0.19456737372196,-0.140088509079811,-0.072943689913017,-0.0308255760720282,-0.0309781779337709,-0.0717228750190753,-0.133679230886617,-0.182664428506028,-0.191057530901877,-0.151991454295743,-0.0822524034793226,-0.0173966122386694,0.0119029452159315,-0.00396764840531066,-0.0546314665038915,-0.107279108805128,-0.128185563863879,-0.10346406226156,-0.0416603082557608,0.0267053258049747,0.066992217305051,0.0633297726232259,0.0175492141004119,-0.0502060125133528,-0.103616664123302,-0.116282618647948,-0.082557607202808,-0.0195330383030674,0.0360140393712802,0.0558522813978329,0.0320463909659697,-0.0262475202197468,-0.0901877002899436,-0.124523119182054,-0.11078895162521,-0.0540210590569206,0.0140393712803295,0.0549366702273767,0.050511216236838,0.00366244468182501,-0.0636349763467115,-0.116740424233176,-0.132611017854418,-0.106516099496414,-0.0526476423012362,-0.00412025026705337,0.011139935907218,-0.0132763619716162,-0.0692812452311919,-0.128338165725622,-0.157942926903708,-0.145887379826034,-0.100259423164963,-0.0456279566610714,-0.0135815656951016,-0.0204486494735237,-0.0669922173050512,-0.134900045780559,-0.188615901113994,-0.201434457500382,-0.170151075843125,-0.113077979551351,-0.0634823744849688,-0.0462383641080422,-0.0663818098580804,-0.116740424233176,-0.172745307492752,-0.202807874256066,-0.189378910422707,-0.133984434610102,-0.0640927819319397,-0.0195330383030674,-0.0196856401648101,-0.0622615595910271,-0.127269952693423,-0.179459789409431,-0.192583549519304,-0.16084236227682,-0.0988860064092783,-0.0396764840531056,-0.0134289638333589,-0.0315885853807418,-0.0874408667785748,-0.150923241263544,-0.185716465740882,-0.174576529833664,-0.123760109873341,-0.0608881428353427,-0.0198382420265528,-0.0178544178238976,-0.0558522813978332,-0.117808637265375,-0.168319853502213,-0.179459789409431,-0.146345185411262,-0.0824050053410653,-0.0207538531970091,0.00732488936365012,-0.00869830611933477,-0.0613459484205708,-0.122234091255913,-0.156416908286281,-0.143903555623379,-0.0874408667785748,-0.0154127880360142,0.0337250114451395,0.0410499008087898,0.00579887074622299,-0.056462688844804,-0.112009766519152,-0.132458415992675,-0.108957729284297,-0.0529528460247216,0.00335724095833958,0.0283839462841446,0.0109873340454752,-0.0396764840531056,-0.0938501449717688,-0.113383183274836,-0.0767587364565849,0.0164810010682129,0.142072333282466,0.264306424538379,0.361819014191973,0.429421638943995,0.478559438425149,0.538989775675263,0.636349763467114,0.775980466961697,0.944147718602167,1.10880512742255,1.23882191362735,1.31695406683962,1.32763619716161,1.26506943384709,1.14848161147566,1.00915611170456,0.87120402868915,0.736914390355562,0.590264001220815,0.423775370059515,0.242942163894399,0.0662292079963374,-0.0717228750190753,-0.143293148176408,-0.146345185411262,-0.103158858538074,-0.0546314665038915,-0.0349458263390814,-0.0540210590569206,-0.104684877155501,-0.162215779032504,-0.193804364413246,-0.179764993132916,-0.121013276361972,-0.0441019380436442,0.00946131542804811,0.0160231954829848,-0.0257897146345187,-0.0964443766213949,-0.158095528765451,-0.179154585685945,-0.151533648710514,-0.0894246909812301,-0.0265527239432322,0.00503586143750943,-0.00503586143750965,-0.0528002441629789,-0.113230581413093,-0.150465435678315,-0.144208759346864,-0.0962917747596522,-0.0291469555928583,0.0206012513352662,0.0309781779337707,-0.000305203723485538,-0.0601251335266291,-0.116130016786205,-0.137036471844957,-0.111246757210438,-0.0495956050663819,0.0137341675568441,0.0457805585228139,0.0349458263390812,-0.0134289638333589,-0.0775217457652984,-0.1214710819472,-0.122081489394171,-0.0756905234243859,-0.0033572409583398,0.0550892720891194,0.072333282466046,0.044101938043644,-0.014954982450786,-0.0723332824660462,-0.0952235617274532,-0.0694338470929346,-0.00381504654356794,0.0676026247520219,0.108499923699069,0.102701052952846,0.0524950404394932,-0.0169388066534413,-0.0656188005493668,-0.0671448191667939,-0.020296047611781,0.0523424385777505,0.112314970242637,0.132458415992675,0.106973905081642,0.0476117808637264,-0.0125133526629026,-0.0387608728826493,-0.0161757973447277,0.044101938043644,0.110178544178239,0.148634213337403,0.146497787273005,0.10743171066687,0.0517320311307797,0.0103769265985044,0.00534106516099485,0.0431863268731877,0.108042118113841,0.163741797649931,0.183580039676484,0.163589195788188,0.115672211200977,0.0666870135815656,0.0468487715550129,0.0689760415077063,0.124523119182054,0.185563863879139,0.223409125591332,0.224324736761788,0.187242484358309,0.132000610407447,0.0946131542804821,0.0984282008240499,0.144819166793835,0.214558217610255,0.271783915763772,0.291469555928582,0.271631313902029,0.223256523729589,0.173203113077979,0.15244925988097,0.175644742865863,0.236380283839463,0.305814130932397,0.349458263390813,0.349153059667328,0.306119334655883,0.243705173203113,0.199755837021212,0.198229818403784,0.242636960170914,0.315580650083931,0.380436441324584,0.407446970853044,0.388676941858691,0.332519456737372,0.271173508316801,0.241568747138715,0.259575766824355,0.316343659392644,0.381657256218526,0.42072333282466,0.41843430489852,0.378452617121929,0.319548298489241,0.272546925072486,0.25927056310087,0.284449870288417,0.334503280940027,0.378452617121929,0.390965969784831,0.363802838394628,0.302151686250572,0.233633450328094,0.193346558828018,0.196093392339386,0.236685487562948,0.288570120555471,0.315275446360445,0.298336639707004,0.242636960170914,0.16816725164047,0.107279108805127,0.084541431405463,0.105295284602472,0.151991454295742,0.190904929040134,0.197466809095071,0.167099038608271,0.108499923699069,0.0465435678315274,0.0108347321837325,0.0141919731420722,0.0524950404394932,0.103006256676331,0.133221425301389,0.126506943384709,0.0833206165115213,0.0192278345795818,-0.0323515946894553,-0.0444071417671297,-0.013886769418587,0.0410499008087898,0.0901877002899434,0.109720738593011,0.0926293300778268,0.0450175492141003,-0.00839310239584934,-0.0379978635739357,-0.0291469555928583,0.0164810010682129,0.075537921562643,0.112925377689608,0.11246757210438,0.0767587364565847,0.0215168625057225,-0.0238058904318634,-0.0332672058599116,-0.0010682130321991,0.0576835037387455,0.111551960933923,0.131390202960476,0.109262933007783,0.0563100869830611,-0.000152601861742824,-0.031435983518999,-0.0239584922936061,0.0192278345795818,0.0769113383183274,0.117808637265375,0.122997100564627,0.0903403021516861,0.0321989928277124,-0.0206012513352664,-0.0384556691591638,-0.0135815656951016,0.040897298947047,0.0965969784831374,0.125743934075996,0.11643522050969,0.070196856401648,0.00961391728979082,-0.0309781779337709,-0.0292995574546011,0.0161757973447275,0.0831680146497786,0.134137036471845,0.146955592858233,0.117961239127117,0.0590569204944299,0.00289943537311144,-0.0198382420265528,0.00167862047916973,0.0595147260796581,0.12208148939417,0.153670074774912,0.14115672211201,0.0926293300778268,0.0334198077216541,-0.00610407446970864,-0.00686708377842221,0.0340302151686249,0.0970547840683655,0.146039981687776,0.157027315733252,0.12543873035251,0.0653135968258812,0.010071722875019,-0.00961391728979104,0.0148023805890431,0.0727910880512741,0.135052647642301,0.169082862810926,0.16084236227682,0.113383183274836,0.0497482069281244,0.00549366702273757,0.00381504654356772,0.0457805585228139,0.108499923699069,0.154890889668854,0.162063177170761,0.128490767587364,0.06806043033725,0.00991912101327625,-0.016023195482985,0.00289943537311144,0.0592095223561726,0.120708072638486,0.152754463604456,0.142072333282466,0.093087135663055,0.0282313444224018,-0.016023195482985,-0.0164810010682131,0.026552723943232,0.090950709598657,0.141309323973752,0.15244925988097,0.119487257744544,0.0572256981535174,-0.00167862047916996,-0.0271631313902031,-0.00671448191667949,0.0523424385777505,0.119182054021059,0.157790325041965,0.15244925988097,0.104532275293758,0.0378452617121928,-0.00808789867236391,-0.00839310239584934,0.0363192430947656,0.102548451091103,0.153364871051427,0.164047001373417,0.131848008545704,0.0737066992217304,0.0230428811231496,0.00900350984281997,0.0389134747443918,0.100259423164962,0.163894399511674,0.199450633297726,0.194872577445445,0.155348695254082,0.104379673432016,0.0756905234243857,0.0883564779490309,0.139783305356325,0.208911948725774,0.262322600335724,0.277430184648253,0.251030062566763,0.19517778116893,0.137952083015413,0.10911033114604,0.12208148939417,0.170456279566611,0.226766366549672,0.258812757515642,0.251640470013734,0.206622920799634,0.143293148176408,0.0970547840683655,0.093087135663055,0.135663055089272,0.205707309629177,0.265374637570578,0.283839462841447,0.254997710972074,0.191667938348848,0.126201739661224,0.093087135663055,0.10743171066687,0.161605371585533,0.223409125591332,0.256828933312986,0.245994201129254,0.193346558828018,0.121623683808942,0.069128643369449,0.0601251335266289,0.0964443766213947,0.157027315733252,0.204639096596978,0.213490004578056,0.179612391271173,0.11307797955135,0.0439493361819013,0.00686708377842199,0.0173966122386692,0.0677552266137646,0.128338165725622,0.163589195788188,0.157179917594995,0.111704562795666,0.0486799938959254,0.00228902792614059,-0.00381504654356794,0.0332672058599114,0.0964443766213947,0.15016023195483,0.16816725164047,0.144361361208607,0.0871356630550892,0.0247215016023194,-0.00763009308713577,0.00656188005493656,0.0625667633145123,0.131084999236991,0.174271326110178,0.174118724248436,0.132305814130932,0.0698916526781626,0.0227376773996642,0.0157179917594994,0.053715855333435,0.121318480085457,0.183274835952999,0.209064550587517,0.18953151228445,0.133221425301389,0.0711124675721043,0.0386082710209063,0.0512742255455515,0.10407446970853,0.171066687013581,0.216389439951167,0.21989928277125,0.179459789409431,0.11475660003052,0.0650083931023957,0.0584465130474591,0.0970547840683655,0.159468945521135,0.210743171066687,0.226461162826186,0.203570883564779,0.152601861742713,0.0982755989623072,0.0689760415077063,0.0781321532122691,0.122691896841141,0.179307187547688,0.214100412025027,0.209827559896231,0.169388066534412,0.110025942316496,0.0630245688997405,0.0566152907065465,0.103006256676331,0.195482984892416,0.303372501144514,0.394781016328399,0.457500381504654,0.497482069281245,0.539600183122234,0.614832900961392,0.736303982908591,0.898672363802838,1.07767434762704,1.23729589500992,1.35327330993438,1.41660308255761,1.43064245383794,1.40820998016176,1.35632534716924,1.28017701815962,1.1843430489852,1.0585991149092,0.892110483747902,0.690828628109263,0.473981382572867,0.276514573477796,0.13947810163284,0.0817945978940942,0.0924767282160841,0.136273462536243,0.170303677704868,0.170303677704868,0.131695406683961,0.0689760415077063,0.0138867694185868,-0.00473065771402422,0.0247215016023194,0.094155348695254,0.166183427437815,0.202197466809095,0.189836716007935,0.138409888600641,0.0756905234243857,0.0375400579887073,0.0436441324584159,0.0936975431100258,0.165725621852586,0.220814893941706,0.231954829848924,0.195482984892416,0.129711582481306,0.0714176712955897,0.0503586143750953,0.0758431252861284,0.136426064397986,0.199450633297726,0.233175644742866,0.224782542347017,0.177323363345033,0.115519609339234,0.0761483290096138,0.0808789867236379,0.13047459179002,0.203113077979551,0.259880970547841,0.274988554860369,0.244010376926598,0.179917594994659,0.118266442850603,0.0953761635891957,0.125896535937738,0.1968564016481,0.269189684114146,0.30596673279414,0.294979398748665,0.242789562032657,0.176102548451091,0.132000610407447,0.133831832748359,0.184037845261712,0.259575766824355,0.318937891042271,0.334808484663513,0.303525103006257,0.240500534106516,0.180375400579887,0.156111704562796,0.180833206165115,0.245078589958797,0.314512437051732,0.35266290248741,0.342743781474134,0.288264916831985,0.217610254845109,0.170303677704868,0.168930260949183,0.213795208301541,0.283229055394476,0.338928734930566,0.353425911796124,0.320769113383183,0.25423470166336,0.189989317869678,0.165115214405616,0.192125743934076,0.258660155653899,0.330077826949489,0.372043338928735,0.37005951472608,0.325804974820693,0.263696017091408,0.21989928277125,0.21989928277125,0.266900656188005,0.338928734930566,0.397375247978025,0.417060888142835,0.394323210743171,0.340912559133221,0.286891500076301,0.26323821150618,0.284907675873646,0.346406226155959,0.415840073248893,0.456584770334198,0.4544483442698,0.413245841599267,0.354188921104837,0.311765603540363,0.309018770028994,0.350831680146498,0.421181138409888,0.484358309171372,0.510605829391118,0.491835800396765,0.439035556233786,0.383335876697696,0.357240958339692,0.374484968716618,0.428353425911796,0.492751411567221,0.536242942163894,0.542652220357088,0.510300625667633,0.454753547993285,0.410651609949641,0.404547535479933,0.441782389745155,0.505264764230123,0.560506638180986,0.580650083931024,0.558217610254845,0.501297115824813,0.439798565542499,0.408209980161758,0.422859758889058,0.476575614222493,0.538074164504807,0.571188768502976,0.561117045627957,0.512437051732031,0.445597436288723,0.393560201434457,0.378757820845414,0.404700137341675,0.454753547993285,0.495040439493362,0.498397680451701,0.459484205707309,0.38974515489089,0.319243094765756,0.279261406989165,0.282008240500534,0.320311307797955,0.367617884938196,0.391423775370059,0.375400579887074,0.32061651152144,0.246757210437967,0.189226308560964,0.172897909354494,0.200671448191668,0.254997710972074,0.301236075080116,0.312833816572562,0.283076453532733,0.221730505112162,0.158095528765451,0.12376010987334,0.131390202960476,0.176712955898062,0.234854265222036,0.270715702731573,0.26659545246452,0.22554555165573,0.166946436746528,0.122691896841141,0.113840988860064,0.143598351899893,0.197619410956814,0.245078589958797,0.261864794750496,0.242179154585686,0.190294521593163,0.130779795513505,0.0982755989623072,0.109568136731268,0.160689760415077,0.225392949793987,0.267663665496719,0.269494887837631,0.231039218678468,0.169540668396154,0.119639859606287,0.108805127422554,0.144056157485121,0.209064550587517,0.267053258049748,0.2879597131085,0.264306424538379,0.205707309629177,0.141309323973752,0.104379673432016,0.110636349763467,0.157790325041965,0.223103921867847,0.269800091561117,0.275293758583855,0.236532885701205,0.171219288875324,0.116282618647947,0.100869830611933,0.130321989928277,0.188921104837479,0.244773386235312,0.271478712040287,0.259880970547841,0.21318480085457,0.154738287807111,0.11811384098886,0.122234091255913,0.165573019990844,0.223714329314818,0.26155959102701,0.259880970547841,0.219594079047764,0.157790325041965,0.107126506943385,0.0938501449717685,0.122539294979399,0.181291011750343,0.239279719212574,0.266137646879292,0.250114451396307,0.198077216542042,0.136883869983214,0.0993438119945062,0.10178544178239,0.144819166793835,0.206317717076148,0.249961849534564,0.254539905386846,0.21822066229208,0.154280482221883,0.0965969784831374,0.0752327178391575,0.0994964138562489,0.157942926903708,0.218525866015565,0.249198840225851,0.236990691286434,0.185106058293911,0.119029452159316,0.0764535327330992,0.0784373569357545,0.125133526629025,0.192736151381047,0.243247367617885,0.253624294216389,0.220662292079963,0.158400732488936,0.0996490157179916,0.0753853197009002,0.0976651915153364,0.157942926903708,0.223561727453075,0.258202350068671,0.246146802990996,0.193193956966275,0.127422554555165,0.0865252556081183,0.0906455058751716,0.139935907218068,0.212116587822371,0.269647489699374,0.289485731725927,0.26659545246452,0.212574393407599,0.159774149244621,0.141004120250267,0.167099038608271,0.227529375858385,0.29024874103464,0.321989928277125,0.308713566305509,0.254997710972074,0.187395086220052,0.142224935144209,0.140393712803296,0.180222798718144,0.237601098733404,0.278803601403937,0.285365481458874,0.254997710972074,0.197619410956814,0.143598351899893,0.122234091255913,0.143293148176408,0.199450633297726,0.260186174271326,0.289943537311155,0.275446360445597,0.223103921867847,0.156416908286281,0.109873340454753,0.104379673432016,0.14176712955898,0.201129253776896,0.245078589958797,0.249504043949336,0.21089577292843,0.142530138867694,0.0782847550740118,0.0482221883106973,0.0602777353883716,0.105295284602472,0.155348695254082,0.177628567068518,0.158705936212422,0.102090645505875,0.0294521593163435,-0.022432473676179,-0.0286891500076302,0.0119029452159315,0.0767587364565847,0.127575156416908,0.139325499771097,0.106210895772928,0.0407446970853043,-0.0219746680909508,-0.0491377994811538,-0.0283839462841448,0.0334198077216541,0.104379673432016,0.146497787273005,0.144361361208607,0.100259423164962,0.0346406226155958,-0.0151075843125287,-0.0242636960170915,0.0109873340454752,0.0724858843277887,0.123912711735083,0.138409888600641,0.110025942316496,0.050511216236838,-0.00915611170456291,-0.0386082710209066,-0.0256371127727759,0.025484510911033,0.08774607050206,0.124217915458568,0.117350831680146,0.0688234396459636,-1.11022302462516e-16,-0.0515794292690372,-0.0608881428353427,-0.0245688997405769,0.0373874561269646,0.088814283534259,0.104227071570273,0.0790477643827254,0.0238058904318632,-0.0334198077216543,-0.0625667633145125,-0.0503586143750955,-0.000763009308713677,0.0593621242179153,0.095223561727453,0.0901877002899434,0.0454753547993284,-0.0183122234091257,-0.0660766061345949,-0.0746223103921869,-0.0416603082557608,0.0175492141004119,0.0729436899130168,0.103158858538074,0.106363497634671,0.0924767282160841,0.0883564779490309,0.126812147108195,0.223409125591332,0.371432931481764,0.54051579429269,0.69235464672669,0.805890431863269,0.877613306882344,0.924462078437357,0.979093544941248,1.06516099496414,1.18174881733557,1.29299557454601,1.33343506790783,1.26247520219747,1.0911033114604,0.85716465740882,0.612086067450023,0.404547535479933,0.259575766824355,0.179459789409431,0.142072333282466,0.111551960933923,0.0643979856554249,-0.00717228750190763,-0.0924767282160843,-0.162063177170762,-0.193651762551503,-0.181748817335572,-0.137341675568442,-0.0900350984282009,-0.0663818098580804,-0.0753853197009005,-0.114451396307035,-0.162368380894247,-0.189378910422707,-0.179764993132916,-0.135510453227529,-0.078284755074012,-0.0392186784678774,-0.0352510300625669,-0.0677552266137648,-0.122081489394171,-0.16816725164047,-0.182359224782542,-0.158400732488936,-0.108347321837327,-0.0625667633145125,-0.0463909659697849,-0.0657714024111095,-0.111857164657409,-0.160994964138563,-0.185411262017397,-0.173355714939722,-0.129101175034336,-0.0738593010834733,-0.0361666412330231,-0.0308255760720282,-0.0589043186326874,-0.109415534869526,-0.152601861742713,-0.162826186479475,-0.134594842057073,-0.0808789867236381,-0.0323515946894553,-0.0148023805890433,-0.0338776133068825,-0.0811841904471236,-0.133679230886617,-0.163131390202961,-0.15580650083931,-0.113993590721807,-0.057530901877003,-0.018159621547383,-0.0141919731420724,-0.0463909659697849,-0.101022432473676,-0.148023805890432,-0.162063177170762,-0.136426064397986,-0.0820998016175798,-0.0289943537311156,-0.00549366702273779,-0.0206012513352664,-0.0692812452311919,-0.128185563863879,-0.163894399511674,-0.158095528765451,-0.113840988860064,-0.0540210590569206,-0.011750343354189,-0.00610407446970864,-0.0384556691591638,-0.0956813673126813,-0.14680299099649,-0.16419960323516,-0.139630703494583,-0.0828628109262934,-0.0239584922936061,0.00625667633145113,-0.00289943537311166,-0.0476117808637266,-0.104379673432016,-0.140241110941554,-0.135815656951015,-0.0897298947047155,-0.022432473676179,0.0288417518693727,0.0412025026705325,0.0115977414924461,-0.0468487715550131,-0.101022432473676,-0.119639859606287,-0.0929345338013125,-0.0311307797955136,0.0335724095833968,0.0674500228902791,0.0572256981535174,0.00793529681062098,-0.0546314665038915,-0.0932397375247979,-0.0872882649168321,-0.0392186784678774,0.0285365481458873,0.081336792308866,0.0970547840683655,0.072333282466046,0.0198382420265526,-0.0283839462841448,-0.0425759194262171,-0.0134289638333589,0.0485273920341827,0.112620173966122,0.146497787273005,0.139325499771097,0.0962917747596519,0.0404394933618189,0.00595147260796571,0.0123607508011597,0.0582939111857163,0.122997100564627,0.172287501907523,0.184648252708683,0.15748512131848,0.102701052952846,0.050511216236838,0.029757363039829,0.0503586143750953,0.104379673432016,0.162215779032504,0.189684114146192,0.173660918663208,0.119945063329773,0.0524950404394932,0.00640927819319385,0.00183122234091245,0.0373874561269646,0.0927819319395695,0.133984434610102,0.138715092324126,0.103158858538074,0.0379978635739355,-0.0250267053258051,-0.0563100869830613,-0.0445597436288724,0.00305203723485415,0.0560048832595757,0.0784373569357545,0.0564626888448038,-0.00396764840531066,-0.0801159774149246,-0.137036471844957,-0.150312833816573,-0.119487257744545,-0.0660766061345949,-0.0248741034640624,-0.0222798718144362,-0.0604303372501146,-0.122997100564627,-0.179001983824203,-0.199755837021212,-0.176407752174577,-0.120555470776744,-0.0637875782084543,-0.0398290859148483,-0.059667327941401,-0.115824813062719,-0.18449565084694,-0.230886616816725,-0.235006867083779,-0.196703799786357,-0.135205249504044,-0.0863726537463758,-0.0756905234243859,-0.106973905081642,-0.168472455363956,-0.227834579581871,-0.252403479322448,-0.231039218678468,-0.171829696322295,-0.104684877155501,-0.0663818098580804,-0.0727910880512743,-0.120860674500229,-0.188768502975736,-0.240195330383031,-0.248741034640623,-0.210285365481459,-0.143750953761636,-0.0880512742255457,-0.0715702731573326,-0.101327636197162,-0.166183427437815,-0.231497024263696,-0.260186174271326,-0.239737524797803,-0.179459789409431,-0.109720738593011,-0.0679078284755075,-0.0711124675721045,-0.117198229818404,-0.184648252708683,-0.235312070807264,-0.2429421638944,-0.204486494735236,-0.139935907218068,-0.0849992369906914,-0.0659240042728522,-0.0883564779490311,-0.143293148176408,-0.20357088356478,-0.236685487562948,-0.226308560964444,-0.17381352052495,-0.105600488325958,-0.0604303372501146,-0.059667327941401,-0.103006256676332,-0.169082862810926,-0.220204486494735,-0.229665801922784,-0.194872577445445,-0.134900045780559,-0.0830154127880361,-0.0656188005493668,-0.0897298947047155,-0.146192583549519,-0.205249504043949,-0.234701663360293,-0.221272699526934,-0.171219288875324,-0.112009766519152,-0.0773691439035557,-0.0808789867236381,-0.121013276361972,-0.182359224782542,-0.232107431710667,-0.243705173203113,-0.211963985960629,-0.152296658019228,-0.0984282008240502,-0.0785899587974974,-0.100259423164963,-0.153670074774912,-0.211353578513658,-0.24126354341523,-0.227529375858386,-0.174118724248436,-0.109262933007783,-0.0698916526781628,-0.0720280787425608,-0.112009766519152,-0.17152449259881,-0.218068060430337,-0.227681977720128,-0.195940790477644,-0.134747443918816,-0.0746223103921869,-0.0451701510758432,-0.0569204944300322,-0.103158858538074,-0.157027315733252,-0.184037845261712,-0.168014649778727,-0.11643522050969,-0.0563100869830613,-0.0201434457500383,-0.0230428811231498,-0.0637875782084543,-0.125133526629025,-0.174576529833664,-0.187700289943537,-0.159621547382878,-0.102243247367618,-0.0476117808637266,-0.0254845109110332,-0.0434915305966734,-0.0940027468335115,-0.152144056157485,-0.184800854570426,-0.175186937280635,-0.127422554555166,-0.0645505875171678,-0.02136426064398,-0.0180070196856403,-0.056462688844804,-0.120402868915001,-0.175797344727606,-0.197009003509843,-0.176560354036319,-0.124065313596826,-0.0711124675721045,-0.0495956050663819,-0.0701968564016482,-0.12711735083168,-0.195482984892416,-0.239432321074317,-0.239737524797803,-0.199298031435984,-0.142377537005952,-0.104074469708531,-0.105295284602472,-0.147108194719976,-0.213184800854571,-0.269647489699374,-0.288417518693728,-0.262780405920952,-0.20418129101175,-0.145734777964291,-0.119182054021059,-0.134900045780559,-0.187547688081795,-0.252861284907676,-0.294674195025179,-0.292232565237296,-0.246146802990997,-0.179459789409431,-0.130016786204792,-0.122234091255913,-0.157790325041966,-0.218678467877308,-0.271020906455059,-0.288264916831985,-0.262017396612239,-0.202197466809095,-0.140546314665039,-0.110331146039982,-0.124217915458569,-0.178086372653746,-0.245841599267511,-0.289027926140699,-0.286891500076301,-0.241873950862201,-0.177018159621547,-0.128338165725622,-0.119182054021059,-0.151228444987029,-0.209980161757974,-0.263543415229666,-0.282160842362277,-0.256981535174729,-0.199145429574241,-0.140546314665039,-0.113840988860064,-0.128948573172593,-0.179307187547688,-0.240653135968259,-0.278498397680452,-0.274530749275141,-0.231191820540211,-0.168472455363956,-0.120708072638486,-0.111857164657409,-0.146650389134748,-0.212421791545857,-0.274683351136884,-0.300930871356631,-0.280177018159622,-0.218525866015565,-0.143140546314665,-0.0866778574698612,-0.0625667633145125,-0.065008393102396,-0.0676026247520221,-0.0318937891042272,0.063787578208454,0.217305051121624,0.401190294521593,0.570578361056005,0.696627498855486,0.774759652067755,0.816572562185259,0.855028231344422,0.921104837479017,1.0103769265985,1.08301541278804,1.08622005188463,0.992064703189379,0.810621089577293,0.572104379673432,0.32061651152144,0.106210895772928,-0.0392186784678774,-0.108347321837327,-0.121165878223714,-0.120555470776744,-0.138562490462384,-0.187547688081795,-0.264764230123608,-0.34198077216542,-0.384404089729895,-0.377079200366245,-0.325804974820693,-0.258354951930414,-0.211353578513658,-0.202807874256066,-0.234396459636808,-0.290096139172898,-0.336029299557455,-0.346101022432474,-0.313444224019533,-0.25194567373722,-0.195635586754158,-0.171829696322295,-0.189378910422707,-0.243857775064856,-0.307340149549825,-0.34365939264459,-0.336029299557455,-0.287349305661529,-0.222493514420876,-0.178086372653746,-0.173660918663208,-0.210285365481459,-0.270105295284603,-0.319090492904014,-0.330383030672974,-0.296352815504349,-0.23226003357241,-0.174118724248436,-0.150007630093087,-0.168319853502213,-0.22325652372959,-0.285365481458874,-0.319700900350984,-0.310086983061193,-0.26094918358004,-0.198992827712498,-0.160384556691592,-0.161605371585533,-0.200518846329925,-0.258965359377385,-0.305051121623684,-0.315733251945674,-0.285975888905845,-0.230734014954983,-0.181291011750343,-0.161147566000305,-0.176407752174577,-0.222340912559133,-0.274988554860369,-0.302304288112315,-0.289180528002442,-0.240805737830002,-0.182817030367771,-0.147413398443461,-0.147871204028689,-0.180680604303373,-0.230276209369754,-0.268579276667175,-0.274072943689913,-0.241110941553487,-0.182969632229513,-0.133068823439646,-0.117656035403632,-0.141461925835495,-0.194262169998474,-0.247672821608424,-0.270563100869831,-0.251182664428506,-0.196703799786357,-0.132000610407447,-0.0903403021516864,-0.0880512742255457,-0.124217915458569,-0.181443613612086,-0.226461162826187,-0.23393865405158,-0.198382420265527,-0.135815656951015,-0.0805737830001527,-0.0590569204944301,-0.0764535327330994,-0.124065313596826,-0.176712955898062,-0.202350068670838,-0.18617427132611,-0.134289638333588,-0.0721806806043035,-0.0311307797955136,-0.0270105295284604,-0.0590569204944301,-0.111857164657409,-0.155196093392339,-0.165878223714329,-0.1361208606745,-0.075080115977415,-0.0151075843125287,0.0128185563863878,-0.000610407446970964,-0.0483747901724402,-0.103921867846788,-0.133374027163131,-0.119945063329773,-0.0671448191667939,-1.11022302462516e-16,0.0457805585228139,0.050511216236838,0.0146497787273004,-0.0425759194262171,-0.0875934686403175,-0.0967495803448803,-0.0648557912406532,-0.0033572409583398,0.0567678925682892,0.086677857469861,0.0761483290096138,0.0288417518693727,-0.0303677704868,-0.0656188005493668,-0.0584465130474593,-0.0119029452159317,0.0495956050663817,0.0906455058751716,0.0900350984282007,0.0471539752784983,-0.0209064550587518,-0.0807263848618954,-0.104684877155501,-0.0849992369906914,-0.034640622615596,0.0125133526629024,0.0264001220814893,-0.000152601861742824,-0.0601251335266291,-0.129864184343049,-0.177323363345033,-0.185258660155654,-0.154280482221883,-0.105905692049443,-0.0763009308713567,-0.0869830611933467,-0.137646879291927,-0.21089577292843,-0.27392034182817,-0.299557454600946,-0.281550434915306,-0.232565237295895,-0.184648252708683,-0.168777659087441,-0.195025179307188,-0.256218525866016,-0.325804974820693,-0.369143903555623,-0.368991301693881,-0.327941400885091,-0.268121471081947,-0.225698153517473,-0.222951320006104,-0.261406989165268,-0.326567984129406,-0.384251487868152,-0.404700137341676,-0.38074164504807,-0.325804974820693,-0.272241721349001,-0.249809247672822,-0.267053258049748,-0.316801464977873,-0.375247978025332,-0.410346406226156,-0.404547535479933,-0.359987791851061,-0.298031435983519,-0.252250877460705,-0.2429421638944,-0.2733099343812,-0.333435067907829,-0.392339386540516,-0.417976499313292,-0.39874866473371,-0.343506790782848,-0.283686860979704,-0.254082099801618,-0.267968869220205,-0.316801464977873,-0.374637570578361,-0.409583396917442,-0.403937128032962,-0.359987791851061,-0.300625667633145,-0.260491377994812,-0.258812757515642,-0.293911185716466,-0.351442087593469,-0.403021516862506,-0.421333740271631,-0.398138257286739,-0.343811994506333,-0.287349305661529,-0.260186174271326,-0.27392034182817,-0.32168472455364,-0.381046848771555,-0.420265527239432,-0.419349916068976,-0.378452617121929,-0.317564474286586,-0.270257897146345,-0.258660155653899,-0.285975888905845,-0.340912559133221,-0.393865405157943,-0.416145276972379,-0.397985655424996,-0.347169235464673,-0.289180528002442,-0.256218525866016,-0.262322600335724,-0.30428811231497,-0.362887227224172,-0.405768350373875,-0.409125591332214,-0.370212116587822,-0.309018770028994,-0.260643979856554,-0.247825423470166,-0.274683351136884,-0.331909049290401,-0.39142377537006,-0.420418129101175,-0.405157942926904,-0.351899893178697,-0.28963833358767,-0.25423470166336,-0.262169998473981,-0.309018770028994,-0.373569357546162,-0.421333740271631,-0.428200824050053,-0.39142377537006,-0.329314817640775,-0.277124980924767,-0.260338776133069,-0.284449870288418,-0.340912559133221,-0.400732488936365,-0.429574240805738,-0.414466656493209,-0.36273462536243,-0.301236075080116,-0.261406989165268,-0.259117961239127,-0.294826796886922,-0.351289485731726,-0.394933618190142,-0.40042728521288,-0.362124217915459,-0.295132000610408,-0.23454906149855,-0.210132763619716,-0.227834579581871,-0.276056767892568,-0.325957576682436,-0.346406226155959,-0.323821150618038,-0.262780405920952,-0.190599725316649,-0.144056157485121,-0.142224935144209,-0.184190447123455,-0.249351442087594,-0.300930871356631,-0.313596825881276,-0.283229055394476,-0.224935144208759,-0.17152449259881,-0.151991454295743,-0.175949946589348,-0.235312070807264,-0.299099649015718,-0.330993438119945,-0.314817640775218,-0.2575919426217,-0.188158095528766,-0.143445750038151,-0.141004120250267,-0.179459789409431,-0.240805737830002,-0.292232565237296,-0.307492751411567,-0.277887990233481,-0.217305051121624,-0.163589195788189,-0.148176407752175,-0.177018159621547,-0.237601098733405,-0.30032046390966,-0.332214253013887,-0.320463909659698,-0.274225545551656,-0.220357088356478,-0.191057530901877,-0.202807874256066,-0.252861284907676,-0.32168472455364,-0.37570578361056,-0.391118571646574,-0.364108042118114,-0.309018770028994,-0.25927056310087,-0.242789562032657,-0.265222035708836,-0.3183274835953,-0.376010987334046,-0.405310544788646,-0.390965969784831,-0.33801312376011,-0.272546925072486,-0.23058141309324,-0.231191820540211,-0.273157332519457,-0.337555318174882,-0.389134747443919,-0.40210590569205,-0.369143903555623,-0.304135510453228,-0.242484358309171,-0.216694643674653,-0.236380283839463,-0.293300778269495,-0.357240958339692,-0.392644590264001,-0.38242026552724,-0.331451243705173,-0.26491683198535,-0.219441477186022,-0.215931634365939,-0.256371127727758,-0.322600335724096,-0.376621394781016,-0.387913932549977,-0.352815504349153,-0.291011750343354,-0.236532885701206,-0.215931634365939,-0.233786052189837,-0.279719212574393,-0.330993438119945,-0.358919578818862,-0.348237448496872,-0.301846482527087,-0.243094765756142,-0.205096902182207,-0.204944300320464,-0.240195330383031,-0.295437204333893,-0.34198077216542,-0.355562337860522,-0.330230428811232,-0.277735388371738,-0.226613764687929,-0.205707309629178,-0.224935144208759,-0.278193193956966,-0.340454753547993,-0.377994811536701,-0.370669922173051,-0.317869678010072,-0.238364108042118,-0.163131390202961,-0.11078895162521,-0.0828628109262934,-0.0660766061345949,-0.0292995574546011,0.0556996795360902,0.194262169998474,0.369754311002594,0.545856859453685,0.689150007630093,0.788188615901114,0.847245536395544,0.885548603692965,0.926598504501755,0.968258812757515,0.98596062871967,0.952235617274531,0.845719517778117,0.6670227376774,0.436136120860674,0.184190447123455,-0.0436441324584161,-0.207385930108347,-0.29131695406684,-0.307187547688082,-0.291774759652068,-0.286128490767587,-0.311918205402106,-0.370975125896536,-0.441324584159927,-0.488325957576683,-0.491530596673279,-0.448039066076606,-0.375400579887075,-0.310392186784679,-0.281397833053563,-0.296352815504349,-0.346558828017702,-0.402258507553792,-0.429879444529223,-0.414008850907981,-0.36105600488326,-0.300015260186174,-0.263696017091409,-0.26827407294369,-0.311307797955135,-0.370669922173051,-0.412177628567069,-0.414466656493209,-0.375247978025332,-0.313139020296048,-0.262475202197467,-0.246299404852739,-0.269037082252404,-0.32168472455364,-0.376773996642759,-0.402258507553792,-0.382725469250725,-0.324126354341523,-0.256676331451244,-0.216847245536396,-0.220814893941706,-0.264764230123608,-0.32565237295895,-0.369296505417366,-0.37173813520525,-0.329620021364261,-0.264001220814894,-0.211200976651915,-0.194872577445445,-0.219441477186022,-0.274835952998627,-0.33068823439646,-0.35434152296658,-0.333587669769571,-0.276667175339539,-0.213032198992828,-0.177018159621547,-0.183274835952999,-0.229360598199298,-0.292842972684267,-0.336944910727911,-0.338165725621853,-0.294216389439951,-0.224782542347017,-0.166641233023043,-0.146192583549519,-0.169388066534412,-0.224629940485274,-0.280329620021364,-0.303525103006257,-0.281855638638791,-0.224629940485274,-0.162215779032504,-0.126964748969938,-0.132000610407447,-0.173050511216237,-0.229818403784526,-0.269342285975889,-0.269189684114146,-0.226613764687929,-0.159316343659393,-0.102243247367618,-0.0810315885853808,-0.0998016175797346,-0.146192583549519,-0.19288875324279,-0.2125743934076,-0.193651762551503,-0.13947810163284,-0.0743171066687015,-0.0323515946894553,-0.0296047611780865,-0.0642453837936824,-0.117656035403632,-0.155043491530597,-0.153212269189684,-0.111094155348695,-0.0457805585228141,0.0119029452159315,0.0372348542652219,0.0213642606439797,-0.0286891500076302,-0.0839310239584924,-0.10911033114604,-0.0880512742255457,-0.0268579276667176,0.0444071417671294,0.0906455058751716,0.0967495803448801,0.0639401800701967,0.0093087135663054,-0.0332672058599116,-0.0375400579887076,0.00289943537311144,0.0730962917747595,0.137952083015413,0.167709446055242,0.154585685945368,0.108042118113841,0.0556996795360902,0.02868915000763,0.0416603082557606,0.092018922630856,0.154738287807111,0.195788188615901,0.197161605371585,0.158858538074164,0.0979703952388218,0.0492904013428963,0.0384556691591636,0.0703494582633907,0.131084999236991,0.187700289943537,0.208606745002289,0.183885243399969,0.122539294979399,0.0543262627804058,0.0122081489394169,0.0114451396307034,0.0479169845872119,0.0981229971005645,0.128338165725622,0.119945063329773,0.0711124675721043,-0.00244162978788352,-0.0666870135815658,-0.0921715244925989,-0.0712650694338472,-0.0183122234091257,0.0306729742102853,0.0445597436288722,0.0135815656951014,-0.0549366702273769,-0.133526629024874,-0.184800854570426,-0.187700289943537,-0.145429574240806,-0.086830459331604,-0.0509690218220663,-0.056462688844804,-0.10178544178239,-0.168930260949184,-0.223714329314818,-0.239432321074317,-0.210132763619716,-0.149855028231345,-0.0927819319395698,-0.0701968564016482,-0.0904929040134291,-0.144361361208607,-0.204486494735236,-0.238058904318633,-0.229207996337555,-0.179612391271174,-0.113688386998321,-0.0680604303372502,-0.0642453837936824,-0.104227071570273,-0.170914085151839,-0.2272241721349,-0.243399969479628,-0.213337402716313,-0.150007630093087,-0.0863726537463758,-0.054326262780406,-0.0662292079963377,-0.116893026094918,-0.179307187547688,-0.217305051121624,-0.207996337555318,-0.152907065466199,-0.0799633755531819,-0.0288417518693729,-0.0207538531970091,-0.0573783000152603,-0.122691896841142,-0.180985808026858,-0.200976651915153,-0.171982298184038,-0.106821303219899,-0.042118113840989,-0.0137341675568443,-0.0299099649015719,-0.0790477643827256,-0.135815656951015,-0.16984587211964,-0.16481001068213,-0.121928887532428,-0.0619563558675417,-0.0164810010682131,-0.0056462688844805,-0.0343354188921106,-0.0898824965664582,-0.139172897909355,-0.152907065466199,-0.123912711735083,-0.0659240042728522,-0.0123607508011599,0.00732488936365012,-0.0103769265985046,-0.0541736609186633,-0.100412025026705,-0.122844498702884,-0.110331146039982,-0.0674500228902794,-0.0137341675568443,0.0216694643674652,0.022279871814436,-0.00900350984282019,-0.057530901877003,-0.097970395238822,-0.109720738593011,-0.0874408667785748,-0.0408972989470473,0.00412025026705315,0.0235006867083777,0.00976651915153354,-0.031435983518999,-0.0816419960323517,-0.11246757210438,-0.108347321837327,-0.0706546619868764,-0.017091408515184,0.0221272699526933,0.0285365481458873,0.000610407446970742,-0.0497482069281246,-0.0949183580039678,-0.108194719975584,-0.0817945978940944,-0.0265527239432322,0.0282313444224018,0.0540210590569204,0.041965511979246,-0.00198382420265538,-0.0590569204944301,-0.10010682130322,-0.106058293911186,-0.0734014954982452,-0.0175492141004121,0.0292995574546008,0.0450175492141003,0.0256371127727757,-0.0212116587822373,-0.0701968564016482,-0.0930871356630552,-0.0764535327330994,-0.0251793071875478,0.0331146039981687,0.0668396154433083,0.0625667633145123,0.0228902792614069,-0.032504196551198,-0.0723332824660462,-0.0763009308713567,-0.0404394933618191,0.0206012513352662,0.0749275141156721,0.0969021822066228,0.0781321532122691,0.0259423164962611,-0.0294521593163438,-0.0538684571951779,-0.0309781779337709,0.0331146039981687,0.109262933007783,0.160231954829849,0.168014649778727,0.132458415992675,0.0741645048069585,0.0296047611780863,0.0238058904318632,0.0613459484205706,0.125133526629025,0.179612391271173,0.197772012818556,0.172592705631009,0.113535785136579,0.0502060125133525,0.0158705936212421,0.0280787425606591,0.083473218373264,0.151533648710514,0.195330383030673,0.198077216542042,0.159468945521135,0.0973599877918509,0.0471539752784983,0.0366244468182511,0.0717228750190751,0.135968258812757,0.192888753242789,0.213032198992828,0.188768502975736,0.130016786204792,0.0657714024111093,0.0289943537311154,0.0366244468182511,0.0846940332672057,0.144666564932092,0.180070196856402,0.17381352052495,0.126354341522966,0.0563100869830611,-1.11022302462516e-16,-0.016023195482985,0.0128185563863878,0.0705020601251334,0.122234091255913,0.139172897909354,0.11246757210438,0.0521898367160078,-0.0115977414924463,-0.0459331603845568,-0.0350984282008242,0.0166336029299556,0.0807263848618952,0.11979246146803,0.11811384098886,0.0770639401800701,0.0138867694185868,-0.036777048679994,-0.0488325957576684,-0.0164810010682131,0.0445597436288722,0.10010682130322,0.120250267053258,0.0993438119945062,0.0497482069281244,-0.00305203723485438,-0.0306729742102855,-0.0195330383030674,0.0250267053258049,0.0787425606592399,0.111551960933923,0.110178544178239,0.074469708530444,0.0184648252708682,-0.0274683351136885,-0.0401342896383337,-0.012818556386388,0.0442545399053867,0.100717228750191,0.126659545246452,0.112925377689608,0.0654661986876239,0.00869830611933455,-0.0241110941553488,-0.0137341675568443,0.0367770486799938,0.101327636197161,0.144971768655577,0.149092018922631,0.112772775827865,0.0529528460247214,0.00549366702273757,-0.0033572409583398,0.0303677704867998,0.0923241263543414,0.148176407752174,0.169082862810926,0.150007630093087,0.101022432473676,0.0466961696932701,0.0178544178238973,0.0309781779337707,0.0819471997558369,0.145429574240806,0.185411262017396,0.182664428506028,0.137341675568442,0.0692812452311917,0.0163283992064702,0.010071722875019,0.0611933465588279,0.157179917594995,0.26323821150618,0.348237448496872,0.405005341065161,0.441477186021669,0.48313749427743,0.561574851213185,0.688539600183122,0.854112620173966,1.03082557607203,1.18388524339997,1.29284297268427,1.35403631924309,1.37402716313139,1.36242942163894,1.32107431710667,1.25011445139631,1.15016023195483,1.01297115824813,0.833969174423928,0.62597283686861,0.407904776438272,0.211048374790172,0.072333282466046,0.00869830611933455,0.0114451396307034,0.0476117808637264,0.0732488936365022,0.0642453837936822,0.0221272699526933,-0.036777048679994,-0.0843888295437205,-0.0965969784831376,-0.0654661986876241,-1.11022302462516e-16,0.0674500228902791,0.103769265985045,0.0953761635891957,0.0480695864489546,-0.011750343354189,-0.0483747901724402,-0.043186326873188,0.000305203723485315,0.060582939111857,0.104990080878987,0.112925377689608,0.0814893941706088,0.024416297878834,-0.0279261406989166,-0.0466961696932704,-0.0215168625057227,0.0370822524034792,0.0967495803448801,0.126049137799481,0.115367007477491,0.0692812452311917,0.00885090798107726,-0.0320463909659699,-0.0320463909659699,0.0120555470776742,0.0810315885853806,0.135510453227529,0.146955592858233,0.113535785136579,0.053715855333435,0.000763009308713455,-0.0184648252708684,0.00381504654356772,0.0589043186326872,0.117503433541889,0.149244620784373,0.140851518388524,0.0929345338013123,0.0285365481458873,-0.0137341675568443,-0.0123607508011599,0.0317411872424842,0.0979703952388218,0.150923241263543,0.1664886311613,0.140393712803296,0.0830154127880359,0.0259423164962611,0.00442545399053857,0.032962002136426,0.0964443766213947,0.159011139935907,0.18953151228445,0.179307187547688,0.135052647642301,0.0802685792766671,0.0454753547993284,0.0477643827254691,0.08774607050206,0.149549824507859,0.198840225850755,0.211048374790172,0.185106058293911,0.13444224019533,0.085609644437662,0.065924004272852,0.0863726537463756,0.139325499771097,0.199755837021212,0.236838089424691,0.23454906149855,0.192278345795819,0.130321989928277,0.0849992369906912,0.0799633755531816,0.120097665191515,0.18953151228445,0.25087746070502,0.275751564169083,0.257439340759957,0.205554707767435,0.149702426369602,0.12543873035251,0.148176407752174,0.209064550587517,0.277582786509995,0.320463909659698,0.322142530138868,0.28460247215016,0.22890279261407,0.188158095528765,0.185411262017396,0.22554555165573,0.291469555928582,0.346253624294216,0.364108042118114,0.343354188921105,0.293148176407752,0.239890126659545,0.216847245536395,0.237753700595147,0.294674195025179,0.359835189989318,0.399969479627651,0.39874866473371,0.359835189989318,0.304745917900198,0.265374637570578,0.261406989165268,0.298184037845262,0.362124217915458,0.418281703036777,0.439493361819014,0.419349916068976,0.365634060735541,0.306882343964596,0.276209369754311,0.287501907523272,0.33633450328094,0.397527849839768,0.436288722722417,0.432626278040592,0.384861895315123,0.311155196093392,0.248435830917137,0.225087746070502,0.248283229055394,0.30032046390966,0.344575003815046,0.353273309934381,0.319395696627499,0.250724858843278,0.17549214100412,0.127422554555165,0.122691896841141,0.159316343659393,0.211353578513658,0.240347932244773,0.226003357240958,0.170761483290096,0.0944605524187394,0.0311307797955134,0.00717228750190741,0.0303677704867998,0.0860674500228902,0.138715092324126,0.15748512131848,0.13276361971616,0.0720280787425605,0.00442545399053857,-0.0344880207538533,-0.0283839462841448,0.0196856401648099,0.0843888295437203,0.12711735083168,0.125896535937738,0.0816419960323515,0.0148023805890431,-0.037845261712193,-0.0482221883106975,-0.0126659545246453,0.0500534106516098,0.106363497634671,0.129711582481306,0.112009766519151,0.0592095223561726,-0.00137341675568453,-0.0352510300625669,-0.0268579276667176,0.0184648252708682,0.0764535327330992,0.114146192583549,0.115367007477491,0.0820998016175796,0.0291469555928581,-0.0146497787273006,-0.0253319090492905,0.00320463909659687,0.0593621242179153,0.112925377689608,0.136731268121471,0.122386693117656,0.0750801159774148,0.0187700289943536,-0.0157179917594996,-0.0122081489394172,0.029757363039829,0.0901877002899434,0.132611017854418,0.13444224019533,0.0970547840683655,0.0393712803296199,-0.00763009308713577,-0.0193804364413247,0.00946131542804811,0.0653135968258812,0.117961239127117,0.141004120250267,0.124980924767282,0.0749275141156721,0.0170914085151838,-0.0148023805890433,-0.0056462688844805,0.0416603082557606,0.104379673432016,0.146497787273005,0.149702426369602,0.116282618647947,0.0608881428353425,0.0128185563863878,-1.11022302462516e-16,0.0288417518693727,0.0860674500228902,0.140698916526782,0.164047001373417,0.145734777964291,0.0921715244925987,0.029757363039829,-0.00824050053410663,-0.00457805585228151,0.0415077063940179,0.106516099496414,0.151991454295742,0.157027315733252,0.121165878223714,0.0592095223561726,0.00503586143750943,-0.0114451396307036,0.0128185563863878,0.0634823744849686,0.113535785136579,0.137189073706699,0.125286128490767,0.0819471997558369,0.0279261406989164,-0.00656188005493678,-0.00366244468182523,0.0369296505417365,0.0935449412482831,0.132305814130932,0.1361208606745,0.106516099496414,0.0556996795360902,0.0103769265985044,-0.00549366702273779,0.0138867694185868,0.0619563558675415,0.114146192583549,0.141309323973752,0.131084999236991,0.0875934686403173,0.0323515946894551,-0.00488325957576694,-0.00595147260796593,0.0320463909659697,0.0932397375247977,0.142377537005951,0.153822676636655,0.122539294979399,0.0630245688997405,0.00900350984281997,-0.00976651915153376,0.0120555470776742,0.0622615595910269,0.113535785136579,0.139783305356325,0.130932397375248,0.0886616816725163,0.0311307797955134,-0.00900350984282019,-0.00946131542804833,0.0311307797955134,0.0929345338013123,0.141309323973752,0.154890889668854,0.131542804822219,0.0802685792766671,0.0292995574546008,0.0093087135663054,0.0346406226155958,0.0985808026857927,0.169540668396154,0.210590569204944,0.208606745002289,0.171371890737067,0.120402868915001,0.0859148481611474,0.0865252556081183,0.12543873035251,0.185716465740882,0.233328246604608,0.243247367617885,0.211963985960629,0.15244925988097,0.0964443766213947,0.0746223103921867,0.0958339691744238,0.150923241263543,0.211048374790172,0.243857775064856,0.237143293148176,0.193346558828018,0.13215321226919,0.0889668853960017,0.0862200518846329,0.12376010987334,0.183122234091256,0.230734014954982,0.242942163894399,0.214405615748512,0.153212269189684,0.0886616816725163,0.0538684571951777,0.0634823744849686,0.110636349763467,0.165420418129101,0.193651762551503,0.181596215473829,0.133068823439646,0.0677552266137646,0.0169388066534411,0.00213642606439787,0.0288417518693727,0.0828628109262932,0.129558980619563,0.141004120250267,0.110483747901724,0.0477643827254691,-0.0177018159621548,-0.054326262780406,-0.0473065771402412,0.000610407446970742,0.0643979856554249,0.106821303219899,0.10743171066687,0.0660766061345947,0.00320463909659687,-0.0445597436288724,-0.052189836716008,-0.0158705936212423,0.0471539752784983,0.102243247367618,0.122386693117656,0.101327636197161,0.0466961696932701,-0.0129711582481307,-0.0450175492141005,-0.0338776133068825,0.0157179917594994,0.0776743476270409,0.117961239127117,0.119487257744544,0.081336792308866,0.0198382420265526,-0.0309781779337709,-0.0445597436288724,-0.0125133526629026,0.0511216236838088,0.110331146039982,0.134137036471845,0.114909201892263,0.0618037540057988,0.00289943537311144,-0.0282313444224021,-0.0161757973447277,0.0347932244773385,0.0993438119945062,0.14115672211201,0.141919731420723,0.10407446970853,0.0477643827254691,0.00427285212879586,-0.00412025026705337,0.0264001220814893,0.0833206165115213,0.135968258812757,0.157332519456737,0.139325499771097,0.0874408667785746,0.0282313444224018,-0.00427285212879608,0.00427285212879586,0.0480695864489546,0.101632839920647,0.133679230886617,0.129711582481306,0.0926293300778268,0.040897298947047,0.00885090798107726,0.0247215016023194,0.0969021822066228,0.211963985960629,0.336944910727911,0.443155806500839,0.520982755989623,0.576377231802228,0.634671142987944,0.723180222798718,0.848771555012971,1.00381504654357,1.16603082557607,1.30413551045323,1.39722264611628,1.4283534259118,1.38287807111247,1.27178391576377,1.12757515641691,0.978177933770792,0.834579581870899,0.688692202044865,0.530901877002899,0.363039829085915,0.19349916068976,0.0471539752784983,-0.0456279566610714,-0.0746223103921869,-0.0494430032046392,0.000457805585228029,0.0341828170303677,0.0302151686250571,-0.00839310239584934,-0.0647031893789105,-0.107889516252098,-0.113077979551351,-0.0747749122539296,-0.00610407446970864,0.0587517167709445,0.0868304593316037,0.0683656340607354,0.0122081489394169,-0.0517320311307799,-0.0872882649168321,-0.0773691439035557,-0.0276209369754312,0.0369296505417365,0.0807263848618952,0.0833206165115213,0.0444071417671294,-0.0189226308560966,-0.0723332824660462,-0.0863726537463758,-0.0535632534716925,0.0106821303219898,0.0708072638486188,0.0967495803448801,0.081336792308866,0.030825576072028,-0.0306729742102855,-0.0679078284755075,-0.0605829391118573,-0.01068213032199,0.0564626888448038,0.103006256676331,0.106058293911186,0.0668396154433083,0.00412025026705315,-0.0477643827254694,-0.0633297726232261,-0.0350984282008242,0.0262475202197466,0.0885090798107736,0.119029452159316,0.106516099496414,0.0569204944300319,-0.00381504654356794,-0.0408972989470473,-0.0363192430947659,0.0070196856401647,0.0679078284755073,0.112925377689608,0.121013276361971,0.0906455058751716,0.0355562337860521,-0.0135815656951016,-0.0294521593163438,-0.0033572409583398,0.0549366702273767,0.114146192583549,0.142682740729437,0.131542804822219,0.0865252556081183,0.029757363039829,-0.00656188005493678,-0.00473065771402422,0.0343354188921104,0.0915611170456278,0.134137036471845,0.142987944452922,0.116587822371433,0.0654661986876239,0.019075232717839,0.00549366702273757,0.0320463909659697,0.0865252556081183,0.141004120250267,0.167404242331756,0.157942926903708,0.120097665191515,0.0720280787425605,0.0413551045322752,0.0460857622462993,0.0875934686403173,0.150007630093087,0.201281855638639,0.21654204181291,0.191973142072333,0.140088509079811,0.0903403021516861,0.0708072638486188,0.0900350984282007,0.141614527697238,0.202197466809095,0.240805737830001,0.243094765756142,0.209827559896231,0.158858538074164,0.122691896841141,0.123454906149855,0.165115214405616,0.231954829848924,0.289790935449412,0.313902029604761,0.297421028536548,0.247367617884938,0.193346558828018,0.16984587211964,0.189226308560964,0.244925988097055,0.308408362582023,0.346558828017702,0.34533801312376,0.308560964443766,0.254997710972074,0.216999847398138,0.217305051121624,0.258354951930413,0.322600335724096,0.375400579887074,0.391881580955288,0.367770486799939,0.313139020296047,0.256523729589501,0.228292385167099,0.240195330383031,0.287349305661529,0.34198077216542,0.368838699832138,0.352052495040439,0.295437204333893,0.21989928277125,0.159774149244621,0.138867694185869,0.162063177170761,0.213795208301541,0.258202350068671,0.266290248741035,0.23119182054021,0.163589195788188,0.0929345338013123,0.0506638180985807,0.0499008087898671,0.0854570425759193,0.132458415992675,0.157790325041965,0.14512437051732,0.0950709598657103,0.0260949183580039,-0.0283839462841448,-0.0445597436288724,-0.020296047611781,0.027620936975431,0.0692812452311917,0.0817945978940942,0.0593621242179153,0.00793529681062098,-0.0482221883106975,-0.079352968106211,-0.0705020601251336,-0.0253319090492905,0.0314359835189988,0.0674500228902791,0.0679078284755073,0.0341828170303677,-0.0195330383030674,-0.0630245688997407,-0.0720280787425608,-0.0416603082557608,0.0148023805890431,0.0665344117198229,0.0865252556081183,0.066992217305051,0.0152601861742712,-0.0418129101175035,-0.0735540973599879,-0.0660766061345949,-0.0216694643674654,0.0367770486799938,0.0761483290096138,0.0792003662444681,0.0453227529375857,-0.01068213032199,-0.0578361056004884,-0.0706546619868764,-0.043186326873188,0.0129711582481305,0.0676026247520219,0.0921715244925987,0.0776743476270409,0.0292995574546008,-0.0280787425606593,-0.0610407446970854,-0.0524950404394935,-0.0044254539905388,0.0589043186326872,0.102243247367618,0.106516099496414,0.0708072638486188,0.0106821303219898,-0.0393712803296201,-0.052189836716008,-0.0209064550587518,0.0410499008087898,0.100259423164962,0.126659545246452,0.110941553486952,0.0596673279414008,-0.000457805585228251,-0.0361666412330231,-0.0300625667633146,0.0157179917594994,0.0785899587974972,0.12376010987334,0.131695406683961,0.100869830611933,0.0442545399053867,-0.00640927819319407,-0.0227376773996644,0.00396764840531043,0.0628719670379977,0.122386693117656,0.152144056157485,0.141919731420723,0.0965969784831374,0.0389134747443918,0.00106821303219888,0.00152601861742702,0.0422707157027315,0.103921867846788,0.15016023195483,0.156874713871509,0.121623683808942,0.0602777353883716,0.00518846329925214,-0.0161757973447277,0.00412025026705315,0.0579887074622309,0.115977414924462,0.146192583549519,0.1361208606745,0.088814283534259,0.0282313444224018,-0.0111399359072182,-0.0108347321837328,0.0291469555928581,0.0892720891194871,0.135663055089272,0.147108194719975,0.121165878223714,0.0688234396459636,0.0186174271326109,-0.00305203723485438,0.0117503433541888,0.0564626888448038,0.106973905081642,0.135815656951015,0.131390202960476,0.0947657561422248,0.0456279566610712,0.0148023805890431,0.0183122234091255,0.0563100869830611,0.111551960933923,0.151228444987029,0.15580650083931,0.126049137799481,0.0750801159774148,0.0302151686250571,0.0157179917594994,0.0376926598504501,0.086677857469861,0.137341675568442,0.162826186479475,0.154585685945368,0.115519609339234,0.0650083931023957,0.031893789104227,0.0325041965511978,0.06806043033725,0.123607508011598,0.166183427437815,0.174423927971921,0.147260796581718,0.0961391728979092,0.0495956050663817,0.0341828170303677,0.0582939111857163,0.11307797955135,0.171371890737067,0.204486494735236,0.202655272394323,0.169235464672669,0.124523119182054,0.0996490157179916,0.11078895162521,0.154433084083626,0.212116587822371,0.254539905386846,0.263390813367923,0.238974515489089,0.193041355104532,0.150312833816572,0.132916221577903,0.147871204028689,0.18953151228445,0.235159468945521,0.257439340759957,0.247215016023195,0.20921715244926,0.158858538074164,0.123149702426369,0.119487257744544,0.149092018922631,0.200824050053411,0.247062414161453,0.265985045017549,0.249961849534564,0.202807874256066,0.149702426369602,0.1214710819472,0.131084999236991,0.173508316801465,0.224324736761788,0.252098275598962,0.242484358309171,0.196703799786357,0.133526629024874,0.0859148481611474,0.075537921562643,0.102701052952846,0.150770639401801,0.18953151228445,0.197314207233328,0.168777659087441,0.110483747901724,0.0497482069281244,0.0173966122386692,0.0247215016023194,0.0657714024111093,0.115824813062719,0.143903555623378,0.136883869983214,0.0965969784831374,0.0384556691591636,-0.0056462688844805,-0.0132763619716162,0.0198382420265526,0.0784373569357545,0.128032962002136,0.143293148176408,0.119945063329773,0.0668396154433083,0.010071722875019,-0.0204486494735237,-0.0125133526629026,0.0312833816572561,0.0885090798107736,0.126354341522966,0.127880360140394,0.0927819319395695,0.0379978635739355,-0.00381504654356794,-0.0125133526629026,0.0146497787273004,0.0660766061345947,0.112925377689608,0.130169388066534,0.11078895162521,0.0611933465588279,0.00686708377842199,-0.02136426064398,-0.0103769265985046,0.0346406226155958,0.0907981077369143,0.127727758278651,0.130627193651762,0.0981229971005645,0.0437967343201586,-0.000610407446970964,-0.0102243247367619,0.0195330383030672,0.074469708530444,0.122997100564627,0.141004120250267,0.124370517320311,0.0784373569357545,0.0256371127727757,-0.00412025026705337,0.00320463909659687,0.0459331603845566,0.102243247367618,0.138409888600641,0.136883869983214,0.0981229971005645,0.0375400579887073,-0.0132763619716162,-0.0302151686250573,-0.00503586143750965,0.0563100869830611,0.128643369449107,0.187242484358309,0.223714329314818,0.242942163894399,0.269800091561117,0.335266290248741,0.450328094002747,0.609491835800397,0.788493819624599,0.950099191210133,1.07141767129559,1.14939722264612,1.19716160537159,1.23958492293606,1.28094002746833,1.29650541736609,1.26155959102701,1.16236838089425,1.00061040744697,0.792308866168167,0.558675415840073,0.334503280940027,0.16145276972379,0.060582939111857,0.0296047611780863,0.0405920952235616,0.0517320311307797,0.0373874561269646,-0.00839310239584934,-0.0779795513505266,-0.142224935144209,-0.171829696322295,-0.154280482221883,-0.0964443766213949,-0.0296047611780865,0.0112925377689607,0.0112925377689607,-0.0282313444224021,-0.0854570425759195,-0.126659545246452,-0.13215321226919,-0.0975125896535939,-0.0392186784678774,0.00763009308713555,0.0189226308560963,-0.0109873340454755,-0.0709598657103618,-0.12879597131085,-0.154280482221883,-0.137189073706699,-0.0848466351289487,-0.0253319090492905,0.00808789867236369,0.00137341675568431,-0.0430337250114452,-0.103769265985045,-0.146039981687777,-0.147566000305204,-0.105600488325958,-0.0395238821913628,0.0148023805890431,0.0343354188921104,0.0143445750038149,-0.0364718449565086,-0.0904929040134291,-0.118724248435831,-0.108347321837327,-0.0640927819319397,-0.0109873340454755,0.0210590569204943,0.0177018159621546,-0.0215168625057227,-0.078284755074012,-0.120555470776744,-0.126964748969938,-0.0933923393865406,-0.0349458263390814,0.0137341675568441,0.0279261406989164,0.00198382420265516,-0.053258049748207,-0.107889516252098,-0.132916221577903,-0.118266442850603,-0.0721806806043035,-0.0207538531970091,0.00778269494887826,0.00350984282008229,-0.0334198077216543,-0.0863726537463758,-0.123760109873341,-0.126049137799481,-0.0932397375247979,-0.0427285212879598,-0.00412025026705337,0.00289943537311144,-0.0221272699526935,-0.0701968564016482,-0.116130016786205,-0.13444224019533,-0.116130016786205,-0.0666870135815658,-0.0111399359072182,0.0186174271326109,0.011139935907218,-0.0283839462841448,-0.0801159774149246,-0.11475660003052,-0.115977414924462,-0.0849992369906914,-0.0370822524034794,0.000915611170456168,0.00961391728979082,-0.013886769418587,-0.0604303372501146,-0.104532275293759,-0.120555470776744,-0.101632839920647,-0.0561574851213186,-0.00747749122539306,0.0178544178238973,0.0109873340454752,-0.0247215016023197,-0.0732488936365025,-0.105295284602472,-0.101632839920647,-0.0631771707614834,-0.00549366702273779,0.0413551045322752,0.0546314665038912,0.0309781779337707,-0.0175492141004121,-0.063940180070197,-0.081489394170609,-0.0611933465588281,-0.00885090798107748,0.0518846329925224,0.0904929040134288,0.0927819319395695,0.0584465130474591,0.00289943537311144,-0.0408972989470473,-0.0486799938959256,-0.0161757973447277,0.0412025026705325,0.0915611170456278,0.109415534869525,0.0891194872577444,0.0376926598504501,-0.0184648252708684,-0.0491377994811538,-0.039981687776591,0.00534106516099485,0.0624141614527696,0.0969021822066228,0.0924767282160841,0.0500534106516098,-0.0141919731420724,-0.0691286433694492,-0.0907981077369145,-0.0730962917747598,-0.0277735388371739,0.0123607508011597,0.0195330383030672,-0.0129711582481307,-0.0763009308713567,-0.142682740729437,-0.180833206165115,-0.178696780100717,-0.143293148176408,-0.100564626888448,-0.0831680146497788,-0.104684877155501,-0.16084236227682,-0.231497024263696,-0.283992064703189,-0.297726232260034,-0.27392034182817,-0.229818403784526,-0.194414771860217,-0.189684114146193,-0.218525866015565,-0.2733099343812,-0.331756447428659,-0.365328857012056,-0.35937738440409,-0.317411872424844,-0.26491683198535,-0.235159468945521,-0.2429421638944,-0.285212879597131,-0.344422401953304,-0.389134747443919,-0.39707004425454,-0.366549671905997,-0.312833816572562,-0.265985045017549,-0.249961849534564,-0.269647489699374,-0.317259270563101,-0.368686097970395,-0.394475812604914,-0.383488478559439,-0.340454753547993,-0.287349305661529,-0.25591332214253,-0.262475202197467,-0.305508927208912,-0.367007477491225,-0.413703647184496,-0.42240195330383,-0.391118571646574,-0.33465588280177,-0.283839462841447,-0.264459026400122,-0.283686860979704,-0.334503280940028,-0.39142377537006,-0.423012360750801,-0.415382267663666,-0.371585533343507,-0.312833816572562,-0.274530749275141,-0.274683351136884,-0.311307797955135,-0.368686097970395,-0.41507706394018,-0.424996184953457,-0.395696627498856,-0.342896383335877,-0.296658019227835,-0.281397833053563,-0.301083473218373,-0.346101022432474,-0.394323210743171,-0.418892110483748,-0.408362582023501,-0.365481458873798,-0.310239584922936,-0.273615138104685,-0.272699526934229,-0.305356325347169,-0.358614375095376,-0.405768350373875,-0.422554555165573,-0.401953303830307,-0.351899893178697,-0.29864184343049,-0.271326110178544,-0.282008240500534,-0.328246604608576,-0.387913932549977,-0.427590416603083,-0.428048222188311,-0.388524339996948,-0.329314817640775,-0.284755074011903,-0.275751564169083,-0.303067297421029,-0.354494124828323,-0.401953303830307,-0.418281703036777,-0.394781016328399,-0.342285975888906,-0.289790935449413,-0.267511063634976,-0.285212879597131,-0.336181901419197,-0.395849229360598,-0.431252861284908,-0.426216999847398,-0.38470929345338,-0.329620021364261,-0.292842972684267,-0.290248741034641,-0.319548298489242,-0.369601709140852,-0.415992675110636,-0.433847092934534,-0.414008850907981,-0.362887227224172,-0.307187547688082,-0.278345795818709,-0.288264916831985,-0.331451243705173,-0.387303525103006,-0.425301388676942,-0.42743781474134,-0.391271173508317,-0.332672058599115,-0.283992064703189,-0.267816267358462,-0.289333129864184,-0.339539142377537,-0.387913932549977,-0.403937128032962,-0.37738440408973,-0.316191057530902,-0.248435830917137,-0.207691133831833,-0.208759346864032,-0.249046238364108,-0.308103158858538,-0.351289485731726,-0.355104532275294,-0.317411872424844,-0.257897146345186,-0.212116587822372,-0.20357088356478,-0.234396459636808,-0.290401342896383,-0.339081336792309,-0.35266290248741,-0.325041965511979,-0.267205859911491,-0.207691133831833,-0.177781168930261,-0.18617427132611,-0.226461162826187,-0.28063482374485,-0.318785289180528,-0.320921715244926,-0.285975888905845,-0.233023042881123,-0.194414771860217,-0.190294521593164,-0.221425301388677,-0.276056767892568,-0.327483595299863,-0.350221272699527,-0.33633450328094,-0.292690370822524,-0.244010376926599,-0.220814893941706,-0.23454906149855,-0.281245231191821,-0.343354188921105,-0.390355562337861,-0.40210590569205,-0.376468792919274,-0.328399206470319,-0.288112314970243,-0.27895620326568,-0.304898519761941,-0.35602014344575,-0.405463146650389,-0.426216999847398,-0.409583396917442,-0.363497634671143,-0.313596825881276,-0.287501907523272,-0.293758583854723,-0.32900961391729,-0.379826033877613,-0.416908286281093,-0.419807721654204,-0.385930108347322,-0.329620021364261,-0.282160842362277,-0.268731878528918,-0.292537768960781,-0.342896383335877,-0.394475812604914,-0.419349916068976,-0.404547535479933,-0.355257134137037,-0.299557454600946,-0.270563100869831,-0.278193193956966,-0.31664886311613,-0.368838699832138,-0.406378757820845,-0.410956813673127,-0.379826033877613,-0.324278956203266,-0.274072943689913,-0.255608118419045,-0.27392034182817,-0.319700900350984,-0.369296505417366,-0.394628414466657,-0.382572867388982,-0.33801312376011,-0.283839462841447,-0.248130627193652,-0.244162978788341,-0.273615138104685,-0.323515946894552,-0.363497634671143,-0.37173813520525,-0.345490614985503,-0.29696322295132,-0.254997710972074,-0.243399969479628,-0.265679841294064,-0.313902029604761,-0.365786662597284,-0.391576377231802,-0.374637570578361,-0.312833816572562,-0.224477338623531,-0.14115672211201,-0.0796581718296964,-0.038913474744392,-0.00305203723485438,0.0550892720891194,0.153975278498398,0.294521593163436,0.460399816877766,0.619563558675416,0.744239279719212,0.827102090645506,0.874561269647489,0.902792614069892,0.917137189073707,0.900045780558523,0.841599267511064,0.743781474133984,0.603540363192431,0.425148786815199,0.222340912559133,0.0181596215473828,-0.150618037540058,-0.255608118419045,-0.292537768960781,-0.279719212574393,-0.253929497939875,-0.250419655119793,-0.283534259117961,-0.348084846635129,-0.42011292537769,-0.464672669006562,-0.462078437356936,-0.417060888142835,-0.355714939722265,-0.310849992369907,-0.302304288112315,-0.332061651152144,-0.385167099038608,-0.429269037082253,-0.438272546925073,-0.406683961544331,-0.347627041049901,-0.290859148481612,-0.264001220814894,-0.274835952998627,-0.317411872424844,-0.37005951472608,-0.401953303830307,-0.394933618190142,-0.348847855943843,-0.284907675873646,-0.238058904318633,-0.229360598199298,-0.259728368686098,-0.314207233328247,-0.360445597436289,-0.373416755684419,-0.346558828017702,-0.288722722417214,-0.229513200061041,-0.199755837021212,-0.207843735693576,-0.247978025331909,-0.299557454600946,-0.331298641843431,-0.326567984129406,-0.287044101938044,-0.229818403784526,-0.185106058293911,-0.175186937280635,-0.205096902182207,-0.262322600335724,-0.315580650083931,-0.336487105142683,-0.315733251945674,-0.261559591027011,-0.204486494735236,-0.175186937280635,-0.182664428506028,-0.22386693117656,-0.279719212574393,-0.317411872424844,-0.317411872424844,-0.279719212574393,-0.221730505112162,-0.176255150312834,-0.16481001068213,-0.189378910422707,-0.238364108042118,-0.284755074011903,-0.30199908438883,-0.281550434915306,-0.231039218678468,-0.177323363345033,-0.149549824507859,-0.155959102701053,-0.191515336487105,-0.237753700595147,-0.265832443155807,-0.260491377994812,-0.224629940485274,-0.173508316801465,-0.133526629024874,-0.123454906149855,-0.144971768655578,-0.187700289943537,-0.227529375858386,-0.242179154585686,-0.224324736761789,-0.17884938196246,-0.12879597131085,-0.101175034335419,-0.104837479017244,-0.136883869983214,-0.181138409888601,-0.209369754311003,-0.204333892873493,-0.167556844193499,-0.114451396307035,-0.0720280787425608,-0.0584465130474593,-0.0747749122539296,-0.112162368380894,-0.147108194719976,-0.156111704562796,-0.131848008545704,-0.0811841904471236,-0.0285365481458875,-1.11022302462516e-16,-0.00167862047916996,-0.0315885853807418,-0.0770639401800703,-0.110636349763467,-0.113383183274836,-0.0824050053410653,-0.0291469555928583,0.0178544178238973,0.0367770486799938,0.0235006867083777,-0.0140393712803297,-0.0526476423012362,-0.0672974210285367,-0.0497482069281246,-0.00518846329925236,0.0457805585228139,0.0766061345948419,0.0758431252861284,0.0450175492141003,-0.00183122234091267,-0.0379978635739357,-0.0451701510758432,-0.0198382420265528,0.0282313444224018,0.0709598657103615,0.0851518388524339,0.0656188005493666,0.0175492141004119,-0.0366244468182513,-0.0686708377842211,-0.0656188005493668,-0.0315885853807418,0.0117503433541888,0.0354036319243094,0.0259423164962611,-0.0161757973447277,-0.0756905234243859,-0.124523119182054,-0.142987944452922,-0.127269952693423,-0.0880512742255457,-0.0541736609186633,-0.0474591790019839,-0.0715702731573326,-0.120708072638486,-0.175797344727606,-0.210132763619716,-0.210590569204944,-0.180070196856402,-0.138562490462384,-0.113535785136579,-0.119182054021059,-0.155959102701053,-0.210437967343202,-0.254539905386846,-0.266748054326263,-0.242331756447429,-0.192278345795819,-0.146192583549519,-0.128948573172593,-0.146345185411262,-0.193651762551503,-0.248741034640623,-0.280787425606592,-0.274225545551656,-0.231344422401953,-0.174118724248436,-0.135052647642301,-0.131390202960476,-0.163283992064703,-0.216389439951167,-0.261712192888753,-0.27559896230734,-0.251640470013734,-0.200061040744697,-0.149855028231345,-0.127880360140394,-0.141461925835495,-0.185563863879139,-0.238058904318633,-0.268731878528918,-0.26323821150618,-0.22325652372959,-0.168472455363956,-0.130016786204792,-0.124523119182054,-0.153059667327941,-0.20357088356478,-0.248130627193652,-0.26262780405921,-0.240042728521288,-0.190752327178392,-0.142377537005952,-0.1214710819472,-0.13444224019533,-0.174576529833664,-0.220662292079963,-0.245383793682283,-0.236838089424691,-0.19853502212727,-0.148329009613917,-0.11475660003052,-0.113230581413093,-0.143445750038151,-0.194872577445445,-0.240805737830002,-0.255760720280788,-0.229818403784526,-0.173355714939722,-0.117961239127117,-0.0933923393865406,-0.108652525560812,-0.157942926903708,-0.215626430642454,-0.249046238364108,-0.24355257134137,-0.202502670532581,-0.145429574240806,-0.104532275293759,-0.0981229971005647,-0.124065313596826,-0.169388066534412,-0.209064550587517,-0.222493514420876,-0.204333892873493,-0.162673584617732,-0.121776285670685,-0.104990080878987,-0.118571646574088,-0.158858538074165,-0.206928124523119,-0.235769876392492,-0.232412635434152,-0.19853502212727,-0.149702426369602,-0.11475660003052,-0.109568136731268,-0.133374027163131,-0.179307187547688,-0.225087746070502,-0.245078589958798,-0.229513200061041,-0.18388524339997,-0.133984434610102,-0.109873340454754,-0.121013276361972,-0.163131390202961,-0.216847245536396,-0.25194567373722,-0.252403479322448,-0.218373264153823,-0.165115214405616,-0.124217915458569,-0.116587822371433,-0.142682740729437,-0.191973142072333,-0.240347932244773,-0.261559591027011,-0.246757210437967,-0.202350068670838,-0.152601861742713,-0.124675721043797,-0.128338165725622,-0.159926751106364,-0.203113077979551,-0.232717839157638,-0.235312070807264,-0.209827559896231,-0.167404242331757,-0.132458415992675,-0.119945063329773,-0.131084999236991,-0.161147566000305,-0.190599725316649,-0.197314207233328,-0.174576529833664,-0.128643369449107,-0.0798107736914391,-0.0518846329925226,-0.0534106516099497,-0.08042118113841,-0.117961239127117,-0.143598351899893,-0.143598351899893,-0.117961239127117,-0.0813367923088663,-0.0578361056004884,-0.0587517167709447,-0.081489394170609,-0.121013276361972,-0.160384556691592,-0.179612391271174,-0.170608881428354,-0.135357851365787,-0.0915611170456281,-0.0653135968258814,-0.0672974210285367,-0.0950709598657105,-0.135815656951015,-0.166030825576072,-0.169693270257897,-0.143293148176408,-0.0984282008240502,-0.0616511521440563,-0.0528002441629789,-0.076148329009614,-0.125743934075996,-0.17884938196246,-0.208759346864032,-0.204944300320464,-0.17152449259881,-0.129253776896078,-0.105600488325958,-0.112772775827865,-0.150618037540058,-0.20585991149092,-0.250419655119793,-0.264153822676637,-0.243399969479628,-0.20021364260644,-0.163131390202961,-0.153212269189684,-0.174118724248436,-0.218831069739051,-0.264611628261865,-0.285975888905845,-0.274225545551656,-0.235312070807264,-0.188921104837479,-0.160231954829849,-0.159621547382878,-0.186632076911338,-0.231954829848924,-0.271020906455059,-0.281397833053563,-0.258507553792156,-0.214100412025027,-0.175034335418892,-0.161605371585533,-0.17717076148329,-0.216389439951167,-0.260186174271326,-0.284297268426675,-0.276514573477797,-0.236838089424691,-0.184800854570426,-0.151075843125286,-0.149855028231345,-0.180070196856402,-0.227681977720128,-0.265374637570578,-0.27163131390203,-0.242331756447429,-0.188310697390508,-0.138104684877156,-0.117503433541889,-0.133984434610102,-0.180070196856402,-0.231497024263696,-0.260186174271326,-0.25362429421639,-0.215168625057226,-0.164504806958645,-0.130321989928277,-0.126354341522967,-0.153822676636655,-0.202960476117809,-0.245994201129254,-0.258354951930414,-0.234701663360293,-0.188005493667023,-0.146192583549519,-0.132763619716161,-0.151838852434,-0.195330383030673,-0.242331756447429,-0.267816267358462,-0.256218525866016,-0.204486494735236,-0.127269952693423,-0.0508164199603236,0.0114451396307034,0.0592095223561726,0.101480238058904,0.16145276972379,0.258965359377384,0.396307034945826,0.559743628872272,0.719822981840378,0.851670990386083,0.948878376316191,1.01526018617427,1.0618037540058,1.094307950557,1.09766519151534,1.0553944758126,0.959713108499924,0.807416450480696,0.609797039523882,0.389134747443919,0.170608881428353,-0.0140393712803297,-0.14115672211201,-0.20418129101175,-0.212116587822372,-0.195482984892416,-0.188005493667023,-0.204944300320464,-0.247367617884938,-0.29864184343049,-0.329772623226003,-0.324431558065009,-0.283534259117961,-0.224172134900046,-0.175644742865863,-0.158553334350679,-0.179001983824203,-0.229207996337555,-0.281245231191821,-0.306119334655883,-0.291774759652068,-0.244773386235312,-0.192430947657562,-0.16252098275599,-0.164657408820388,-0.197314207233328,-0.244925988097055,-0.27895620326568,-0.28063482374485,-0.24690981229971,-0.193193956966275,-0.149549824507859,-0.135968258812758,-0.156264306424538,-0.200824050053411,-0.245078589958798,-0.265527239432321,-0.25194567373722,-0.20921715244926,-0.161452769723791,-0.134900045780559,-0.13779948115367,-0.167404242331757,-0.210437967343202,-0.243094765756142,-0.24858843277888,-0.222951320006104,-0.177628567068518,-0.137646879291927,-0.121165878223714,-0.134594842057073,-0.174271326110179,-0.21822066229208,-0.240195330383031,-0.228597588890585,-0.188005493667023,-0.140393712803296,-0.110025942316496,-0.1057530901877,-0.128338165725622,-0.167251640470014,-0.197009003509843,-0.19853502212727,-0.168319853502213,-0.120250267053258,-0.081489394170609,-0.0689760415077065,-0.0833206165115215,-0.117961239127117,-0.15351747291317,-0.168472455363956,-0.153364871051427,-0.111094155348695,-0.0622615595910271,-0.0321989928277126,-0.0306729742102855,-0.0563100869830613,-0.094765756142225,-0.120708072638486,-0.11811384098886,-0.0863726537463758,-0.0384556691591638,0.000763009308713455,0.0135815656951014,-0.00244162978788352,-0.0419655119792463,-0.0833206165115215,-0.101632839920647,-0.0856096444376622,-0.038913474744392,0.0166336029299556,0.0524950404394932,0.0563100869830611,0.0302151686250571,-0.00869830611933477,-0.033572409583397,-0.0285365481458875,0.00350984282008229,0.0488325957576681,0.0853044407141766,0.0991912101327635,0.0906455058751716,0.0647031893789103,0.0363192430947656,0.025484510911033,0.0427285212879596,0.0862200518846329,0.13779948115367,0.171219288875324,0.175644742865863,0.156264306424538,0.127727758278651,0.110331146039982,0.117656035403632,0.150312833816572,0.196551197924615,0.233938654051579,0.244315580650084,0.226308560964444,0.189073706699222,0.152754463604456,0.138867694185869,0.155501297115825,0.196551197924615,0.2418739508622,0.267968869220204,0.265069433847093,0.235617274530749,0.192278345795819,0.159621547382878,0.156111704562796,0.181291011750343,0.221120097665191,0.251640470013734,0.256371127727758,0.233938654051579,0.190447123454906,0.139935907218068,0.103616664123302,0.095223561727453,0.116587822371433,0.152296658019228,0.174576529833664,0.167862047916984,0.131084999236991,0.0740119029452158,0.021211658782237,-0.0056462688844805,-0.000610407446970964,0.0303677704867998,0.0636349763467113,0.0738593010834731,0.0529528460247214,0.00366244468182501,-0.0549366702273769,-0.0946131542804823,-0.10010682130322,-0.0730962917747598,-0.0323515946894553,-0.00549366702273779,-0.00732488936365035,-0.036777048679994,-0.0819471997558371,-0.119639859606287,-0.133374027163131,-0.118419044712346,-0.0805737830001527,-0.04104990080879,-0.0215168625057227,-0.0305203723485428,-0.0669922173050512,-0.113383183274836,-0.141919731420723,-0.137952083015413,-0.102701052952846,-0.0531054478864643,-0.0178544178238976,-0.013886769418587,-0.0395238821913628,-0.0827102090645507,-0.11979246146803,-0.13047459179002,-0.10911033114604,-0.0651609949641387,-0.0241110941553488,-0.00686708377842221,-0.0177018159621548,-0.0535632534716925,-0.0993438119945064,-0.12879597131085,-0.128032962002137,-0.0962917747596522,-0.0488325957576684,-0.0141919731420724,-0.00869830611933477,-0.031435983518999,-0.0724858843277889,-0.110025942316496,-0.122691896841142,-0.101175034335419,-0.0517320311307799,-0.000305203723485538,0.0264001220814893,0.0198382420265526,-0.0172440103769267,-0.0666870135815658,-0.100412025026705,-0.102090645505875,-0.0703494582633909,-0.0193804364413247,0.022279871814436,0.0352510300625666,0.0160231954829848,-0.0265527239432322,-0.0677552266137648,-0.0820998016175798,-0.0622615595910271,-0.017091408515184,0.0315885853807415,0.0610407446970852,0.0621089577292842,0.0344880207538531,-0.00824050053410663,-0.0404394933618191,-0.0439493361819015,-0.0163283992064704,0.0277735388371737,0.0610407446970852,0.0676026247520219,0.0482221883106973,0.0102243247367617,-0.0273157332519458,-0.0436441324584161,-0.0308255760720282,0.00717228750190741,0.0500534106516098,0.072333282466046,0.064855791240653,0.0314359835189988,-0.0123607508011599,-0.0424233175644744,-0.0434915305966734,-0.0152601861742714,0.0288417518693727,0.0642453837936822,0.0747749122539294,0.0573783000152601,0.0181596215473828,-0.0206012513352664,-0.0361666412330231,-0.0227376773996644,0.0126659545246451,0.0514268274072943,0.072333282466046,0.0676026247520219,0.0401342896383335,0.000457805585228029,-0.0294521593163438,-0.0338776133068825,-0.00946131542804833,0.0321989928277124,0.066992217305051,0.0782847550740118,0.0640927819319395,0.029757363039829,-0.00595147260796593,-0.0218220662292081,-0.00900350984282019,0.02868915000763,0.071265069433847,0.0935449412482831,0.0883564779490309,0.0595147260796581,0.0180070196856401,-0.012818556386388,-0.016023195482985,0.0106821303219898,0.0563100869830611,0.0955287654509384,0.108499923699069,0.0918663207691133,0.0517320311307797,0.00900350984281997,-0.0122081489394172,-0.0021364260643981,0.0363192430947656,0.0836258202350068,0.112772775827865,0.112009766519151,0.082405005341065,0.0373874561269646,0.00274683351136873,-0.0033572409583398,0.0227376773996642,0.071265069433847,0.115367007477491,0.133526629024874,0.123912711735083,0.0938501449717685,0.0613459484205706,0.0476117808637264,0.0613459484205706,0.0987334045475354,0.143293148176408,0.175797344727606,0.187242484358309,0.174271326110178,0.144056157485121,0.120250267053258,0.121165878223714,0.148329009613917,0.190599725316649,0.225850755379216,0.237143293148176,0.223714329314818,0.189836716007935,0.149397222646116,0.12376010987334,0.125896535937738,0.156416908286281,0.199755837021212,0.22890279261407,0.23058141309324,0.206928124523119,0.170303677704868,0.142224935144209,0.138104684877155,0.159926751106363,0.197772012818556,0.228750190752327,0.234396459636807,0.214100412025027,0.175186937280635,0.134594842057073,0.11307797955135,0.119029452159316,0.147413398443461,0.182664428506028,0.20250267053258,0.196551197924615,0.166641233023043,0.121776285670685,0.082405005341065,0.065924004272852,0.0769113383183274,0.10911033114604,0.141614527697238,0.153822676636655,0.14176712955898,0.108805127422554,0.0676026247520219,0.0390660766061345,0.0354036319243094,0.0584465130474591,0.0967495803448801,0.124828322905539,0.127727758278651,0.104990080878987,0.0639401800701967,0.025484510911033,0.0103769265985044,0.0257897146345184,0.0671448191667937,0.11246757210438,0.13779948115367,0.135815656951015,0.105905692049443,0.0596673279414008,0.0259423164962611,0.0238058904318632,0.0543262627804058,0.102548451091103,0.141309323973752,0.152754463604456,0.135205249504044,0.0985808026857927,0.063787578208454,0.0500534106516098,0.063787578208454,0.100259423164962,0.138715092324126,0.157179917594995,0.149855028231344,0.118571646574088,0.0770639401800701,0.0500534106516098,0.0517320311307797,0.0817945978940942,0.128185563863879,0.1664886311613,0.179764993132916,0.165115214405616,0.128032962002136,0.089882496566458,0.0730962917747595,0.0860674500228902,0.124065313596826,0.165878223714329,0.188158095528765,0.183580039676484,0.153975278498398,0.11246757210438,0.082405005341065,0.0792003662444681,0.10407446970853,0.143140546314665,0.171371890737067,0.174881733557149,0.153517472913169,0.112925377689608,0.0724858843277887,0.0569204944300319,0.0799633755531816,0.141919731420723,0.224019533038303,0.301693880665344,0.36502365328857,0.41675568441935,0.470013734167557,0.546925072485884,0.660460857622463,0.807721654204181,0.97298947047154,1.12803296200214,1.25255608118419,1.34014954982451,1.39203418281703,1.41553486952541,1.40882038760873,1.36090340302152,1.27163131390203,1.14130932397375,0.969327025789714,0.768045170151076,0.554860369296505,0.352357698763925,0.19182054021059,0.0943079505569967,0.0596673279414008,0.0686708377842209,0.086677857469861,0.0878986723638027,0.0636349763467113,0.0172440103769265,-0.0308255760720282,-0.054326262780406,-0.0401342896383337,0.00854570425759183,0.0688234396459636,0.110331146039982,0.119182054021059,0.0943079505569967,0.04837479017244,0.0093087135663054,-0.00122081489394182,0.0228902792614069,0.0721806806043033,0.118876850297574,0.139630703494583,0.128643369449107,0.0904929040134288,0.0450175492141003,0.0175492141004119,0.0216694643674652,0.0585991149092018,0.110178544178239,0.146497787273005,0.150770639401801,0.122539294979399,0.0752327178391575,0.0372348542652219,0.0292995574546008,0.0529528460247214,0.0953761635891957,0.13444224019533,0.153059667327941,0.14512437051732,0.11078895162521,0.0666870135815656,0.0396764840531053,0.0444071417671294,0.0787425606592399,0.122539294979399,0.149244620784373,0.149397222646116,0.126354341522966,0.0894246909812298,0.0579887074622309,0.0500534106516098,0.0714176712955897,0.11475660003052,0.155501297115825,0.171677094460552,0.159774149244621,0.126201739661224,0.089882496566458,0.0717228750190751,0.0796581718296962,0.11307797955135,0.157942926903708,0.18953151228445,0.194109568136731,0.169693270257897,0.126049137799481,0.0897298947047153,0.0816419960323515,0.103616664123302,0.145734777964291,0.186937280634824,0.207385930108347,0.201129253776896,0.169388066534412,0.128490767587364,0.104532275293758,0.112162368380894,0.15016023195483,0.199908438882954,0.23454906149855,0.242484358309171,0.225087746070502,0.191057530901877,0.16084236227682,0.153822676636655,0.176255150312834,0.221883106973905,0.26659545246452,0.287501907523272,0.282008240500534,0.256218525866015,0.224782542347017,0.207385930108347,0.213795208301541,0.243247367617885,0.285518083320616,0.319548298489241,0.330840836258202,0.315122844498703,0.280787425606592,0.251945673737219,0.247215016023195,0.26995269342286,0.313749427743018,0.358614375095376,0.383488478559438,0.382420265527239,0.35769876392492,0.32229513200061,0.300625667633145,0.306882343964596,0.34030215168625,0.385930108347322,0.421486342133374,0.433999694796276,0.421181138409888,0.390050358614375,0.362124217915458,0.356935754616206,0.380283839462841,0.425453990538684,0.469708530444071,0.490767587364566,0.483442698000915,0.449717686555776,0.403174118724248,0.368533496108652,0.36166641233023,0.385014497176865,0.426216999847398,0.457652983366397,0.460552418739508,0.433541889211048,0.385319700900351,0.338165725621852,0.312833816572562,0.316038455669159,0.343354188921105,0.374484968716618,0.385777506485579,0.367923088661682,0.321837326415382,0.262169998473981,0.215321226918968,0.197466809095071,0.209674958034488,0.240195330383031,0.263696017091408,0.262475202197467,0.232412635434152,0.179001983824203,0.124370517320311,0.0944605524187394,0.0993438119945062,0.132458415992675,0.170456279566611,0.187089882496566,0.174576529833664,0.138409888600641,0.0926293300778268,0.0595147260796581,0.0523424385777505,0.0720280787425605,0.106821303219899,0.134137036471845,0.139935907218068,0.122691896841141,0.0859148481611474,0.0477643827254691,0.029757363039829,0.0399816877765908,0.0758431252861284,0.118571646574088,0.141919731420723,0.135052647642301,0.100564626888448,0.0529528460247214,0.0184648252708682,0.0160231954829848,0.0477643827254691,0.0981229971005645,0.138409888600641,0.148786815199145,0.126201739661224,0.0792003662444681,0.0309781779337707,0.00625667633145113,0.0137341675568441,0.0477643827254691,0.088814283534259,0.111551960933923,0.104837479017244,0.0717228750190751,0.026552723943232,-0.00610407446970864,-0.00946131542804833,0.0183122234091255,0.0642453837936822,0.101022432473676,0.111094155348695,0.0932397375247977,0.053715855333435,0.0117503433541888,-0.0102243247367619,-0.00320463909659709,0.0294521593163435,0.070196856401648,0.0950709598657103,0.0959865710361665,0.074469708530444,0.0378452617121928,0.00717228750190741,0.00183122234091245,0.0267053258049747,0.071265069433847,0.109415534869525,0.121318480085457,0.105600488325957,0.0697390508164198,0.0321989928277124,0.0134289638333587,0.0210590569204943,