0.116282618647947,0.0987334045475354,0.0970547840683655,0.070196856401648,0.0177018159621546,0.0375400579887073,0.0859148481611474,0.0984282008240499,0.0903403021516861,0.0412025026705325,0.00778269494887826,0.0189226308560963,-0.0180070196856403,-0.0576835037387457,-0.0227376773996644,0.0143445750038149,0.0270105295284601,0.0273157332519456,0.00320463909659687,-0.00549366702273779,-0.0253319090492905,-0.0775217457652984,-0.0756905234243859,-0.0408972989470473,-0.0328094002746835,-0.0366244468182513,-0.0718754768808181,-0.0993438119945064,-0.0892720891194874,-0.125286128490768,-0.167709446055242,-0.134289638333588,-0.10010682130322,-0.0961391728979095,-0.099038608271021,-0.123912711735083,-0.127269952693423,-0.125286128490768,-0.163436593926446,-0.166641233023043,-0.13383183274836,-0.119945063329773,-0.111551960933923,-0.12711735083168,-0.143445750038151,-0.130169388066535,-0.161300167862048,-0.201739661223867,-0.163436593926446,-0.126354341522967,-0.128032962002137,-0.135205249504044,-0.166183427437815,-0.16984587211964,-0.147871204028689,-0.168319853502213,-0.169693270257897,-0.132916221577903,-0.113840988860064,-0.100869830611934,-0.10743171066687,-0.125896535937739,-0.122539294979399,-0.155348695254082,-0.193193956966275,-0.149702426369602,-0.11078895162521,-0.120860674500229,-0.137646879291927,-0.181443613612086,-0.197161605371586,-0.169235464672669,-0.182359224782542,-0.188463299252251,-0.150618037540058,-0.123760109873341,-0.100412025026705,-0.0940027468335115,-0.115977414924462,-0.126201739661224,-0.161910575309019,-0.20189226308561,-0.161147566000305,-0.119945063329773,-0.126812147108195,-0.142377537005952,-0.196551197924615,-0.234243857775065,-0.221730505112162,-0.240653135968259,-0.24858843277888,-0.201739661223867,-0.161757973447276,-0.127422554555166,-0.105295284602472,-0.117808637265375,-0.123302304288112,-0.145429574240806,-0.17381352052495,-0.124675721043797,-0.0676026247520221,-0.0572256981535176,-0.0566152907065467,-0.0930871356630552,-0.121623683808943,-0.108347321837327,-0.131237601098734,-0.149397222646116,-0.1057530901877,-0.0647031893789105,-0.0344880207538533,-0.014954982450786,-0.0331146039981689,-0.0428811231497025,-0.0584465130474593,-0.0929345338013125,-0.0685182359224784,-0.0274683351136885,-0.0207538531970091,-0.0140393712803297,-0.0373874561269649,-0.0671448191667939,-0.0683656340607356,-0.10743171066687,-0.143598351899893,-0.10911033114604,-0.0732488936365025,-0.0523424385777508,-0.0364718449565086,-0.0587517167709447,-0.0714176712955899,-0.0753853197009005,-0.105600488325958,-0.0933923393865406,-0.0576835037387457,-0.0503586143750955,-0.042118113840989,-0.058599114909202,-0.0904929040134291,-0.100259423164963,-0.142987944452922,-0.185258660155654,-0.157790325041966,-0.132916221577903,-0.130627193651763,-0.130627193651763,-0.168472455363956,-0.18785289180528,-0.177628567068518,-0.198229818403785,-0.195788188615901,-0.166336029299558,-0.157179917594995,-0.142072333282466,-0.144819166793835,-0.169388066534412,-0.176865557759805,-0.212421791545857,-0.24858843277888,-0.211963985960629,-0.179917594994659,-0.180985808026858,-0.182969632229513,-0.221120097665192,-0.239279719212574,-0.21486342133374,-0.22325652372959,-0.219441477186022,-0.181748817335572,-0.159011139935907,-0.13215321226919,-0.120860674500229,-0.143293148176408,-0.157179917594995,-0.194719975583702,-0.232870441019381,-0.193499160689761,-0.15916374179765,-0.170151075843125,-0.184648252708683,-0.236990691286434,-0.272852128795971,-0.257744544483443,-0.269494887837632,-0.270410499008088,-0.228444987028842,-0.196245994201129,-0.158553334350679,-0.13047459179002,-0.143445750038151,-0.154585685945369,-0.183274835952999,-0.217762856706852,-0.179612391271174,-0.141461925835495,-0.149244620784374,-0.158705936212422,-0.204028689150008,-0.246299404852739,-0.246757210437967,-0.269494887837632,-0.271936517625515,-0.206622920799634,-0.129558980619564,-0.0347932244773387,0.06806043033725,0.138562490462384,0.222493514420876,0.312681214710819,0.401190294521593,0.553639554402564,0.706546619868762,0.813062719365176,0.920799633755532,0.996184953456432,1.04974820692812,1.1014802380589,1.06516099496414,0.959255302914695,0.847398138257287,0.694948878376316,0.525103006256676,0.358461773233633,0.167099038608271,0.011139935907218,-0.101327636197162,-0.198077216542042,-0.218983671600794,-0.206317717076148,-0.21654204181291,-0.216236838089425,-0.239279719212574,-0.279566610712651,-0.294979398748665,-0.334503280940028,-0.364260643979857,-0.322600335724096,-0.279566610712651,-0.249961849534564,-0.224935144208759,-0.251640470013734,-0.272546925072486,-0.266442850602777,-0.280329620021364,-0.261101785441782,-0.221272699526934,-0.207233328246605,-0.184190447123455,-0.181748817335572,-0.209064550587517,-0.222188310697391,-0.259575766824355,-0.292537768960781,-0.253929497939875,-0.216389439951167,-0.202044864947352,-0.189989317869678,-0.224935144208759,-0.246146802990997,-0.225850755379216,-0.233328246604609,-0.223103921867847,-0.183274835952999,-0.161452769723791,-0.131542804822219,-0.118724248435831,-0.143140546314665,-0.159011139935907,-0.19517778116893,-0.229360598199298,-0.192278345795819,-0.162063177170762,-0.168319853502213,-0.175339539142378,-0.226308560964444,-0.265679841294064,-0.253319090492904,-0.261406989165268,-0.253929497939875,-0.209674958034488,-0.179764993132916,-0.141767129558981,-0.114298794445292,-0.130932397375248,-0.145429574240806,-0.174423927971921,-0.202807874256066,-0.158553334350679,-0.119334655882802,-0.124675721043797,-0.126659545246452,-0.163436593926446,-0.199755837021212,-0.197466809095071,-0.217915458568595,-0.22554555165573,-0.190447123454906,-0.162215779032504,-0.120708072638486,-0.0830154127880361,-0.097970395238822,-0.114603998168778,-0.130169388066535,-0.14512437051732,-0.0975125896535939,-0.0569204944300322,-0.0613459484205708,-0.0520372348542653,-0.0685182359224784,-0.103158858538074,-0.113535785136579,-0.143598351899893,-0.160689760415077,-0.130779795513505,-0.104379673432016,-0.0630245688997407,-0.0186174271326111,-0.0347932244773387,-0.0550892720891196,-0.0572256981535176,-0.0589043186326874,-0.0103769265985046,0.0314359835189988,0.0303677704867998,0.04837479017244,0.0476117808637264,0.0186174271326109,0.00671448191667927,-0.023500686708378,-0.0447123454906151,-0.0135815656951016,0.0146497787273004,0.0466961696932701,0.0827102090645505,0.0643979856554249,0.0506638180985807,0.0650083931023957,0.0643979856554249,0.095223561727453,0.130321989928277,0.130932397375248,0.147260796581718,0.148634213337403,0.120860674500229,0.106210895772928,0.0674500228902791,0.0299099649015717,0.0511216236838088,0.0668396154433083,0.0703494582633907,0.0776743476270409,0.0343354188921104,-0.000457805585228251,0.00564626888448028,-0.00701968564016492,-0.00259423164962624,0.0115977414924461,-1.11022302462516e-16,0.00976651915153354,0.0105295284602471,-0.0292995574546011,-0.0627193651762553,-0.108652525560812,-0.148176407752175,-0.125743934075996,-0.109873340454754,-0.113230581413093,-0.111704562795666,-0.164657408820388,-0.213795208301541,-0.211658782237143,-0.220051884632993,-0.208454143140546,-0.172745307492752,-0.154738287807111,-0.115672211200977,-0.0824050053410653,-0.0975125896535939,-0.113535785136579,-0.141767129558981,-0.167862047916985,-0.129406378757821,-0.101938043644133,-0.111399359072181,-0.111399359072181,-0.150312833816573,-0.193041355104532,-0.195330383030673,-0.213795208301541,-0.215779032504197,-0.181901419197314,-0.159316343659393,-0.119334655882802,-0.081489394170609,-0.0964443766213949,-0.11246757210438,-0.129558980619564,-0.147260796581718,-0.106668701358157,-0.0816419960323517,-0.103006256676332,-0.10514268274073,-0.129558980619564,-0.165115214405616,-0.169388066534412,-0.19121013276362,-0.200061040744697,-0.166946436746528,-0.142072333282466,-0.103311460399817,-0.0647031893789105,-0.0865252556081185,-0.111857164657409,-0.12314970242637,-0.130932397375248,-0.0808789867236381,-0.0386082710209066,-0.0439493361819015,-0.034640622615596,-0.0460857622462995,-0.0770639401800703,-0.0853044407141768,-0.115977414924462,-0.139783305356325,-0.111094155348695,-0.0859148481611477,-0.0567678925682894,-0.0259423164962614,-0.0514268274072945,-0.074011902945216,-0.0718754768808181,-0.0816419960323517,-0.0549366702273769,-0.0273157332519458,-0.0354036319243096,-0.0221272699526935,-0.02136426064398,-0.0473065771402412,-0.0572256981535176,-0.0882038760872884,-0.113688386998321,-0.0820998016175798,-0.0558522813978332,-0.035708835647795,-0.01068213032199,-0.0392186784678774,-0.0589043186326874,-0.0363192430947659,-0.0285365481458875,-0.000305203723485538,0.0305203723485425,0.0315885853807415,0.0585991149092018,0.0779795513505264,0.0569204944300319,0.0410499008087898,0.00763009308713555,-0.0221272699526935,0.00686708377842199,0.02868915000763,0.0337250114451395,0.0412025026705325,-0.00747749122539306,-0.0512742255455518,-0.0444071417671297,-0.0491377994811538,-0.0341828170303679,-0.000763009308713677,0.0106821303219898,0.0445597436288722,0.0721806806043033,0.0540210590569204,0.0386082710209063,0.010071722875019,-0.0177018159621548,0.0137341675568441,0.0315885853807415,0.0177018159621546,0.0137341675568441,-0.0317411872424845,-0.0788951625209829,-0.0849992369906914,-0.106668701358157,-0.113077979551351,-0.0924767282160843,-0.0828628109262934,-0.0477643827254694,-0.00961391728979104,-0.017091408515184,-0.0264001220814895,-0.0459331603845568,-0.0724858843277889,-0.0488325957576684,-0.0447123454906151,-0.0810315885853808,-0.0944605524187396,-0.129101175034336,-0.167556844193499,-0.170456279566611,-0.190904929040134,-0.198687623989013,-0.166946436746528,-0.142530138867694,-0.100869830611934,-0.0579887074622311,-0.0697390508164201,-0.0856096444376622,-0.0985808026857929,-0.112772775827865,-0.0688234396459638,-0.0329620021364262,-0.0422707157027317,-0.0369296505417367,-0.0561574851213186,-0.0918663207691135,-0.102243247367618,-0.135815656951015,-0.159621547382878,-0.129558980619564,-0.10178544178239,-0.0677552266137648,-0.0329620021364262,-0.0540210590569206,-0.0764535327330994,-0.0828628109262934,-0.0970547840683657,-0.0633297726232261,-0.0260949183580041,-0.0264001220814895,-0.011750343354189,-0.0177018159621548,-0.0499008087898673,-0.0651609949641387,-0.104074469708531,-0.132916221577903,-0.0955287654509386,-0.0589043186326874,-0.0328094002746835,-0.0112925377689609,-0.0457805585228141,-0.0752327178391577,-0.0734014954982452,-0.0882038760872884,-0.0718754768808181,-0.042118113840989,-0.0398290859148483,-0.019227834579582,-0.00900350984282019,-0.0233480848466352,-0.0135815656951016,-0.00824050053410663,0.0195330383030672,0.127727758278651,0.244468182511827,0.355409735998779,0.47581260491378,0.545704257591943,0.622920799633755,0.746070502060125,0.853349610865252,0.97863573935602,1.11521440561575,1.21562643064245,1.30703494582634,1.32916221577903,1.22707157027316,1.05951472607966,0.834884785594384,0.600793529681062,0.442850602777354,0.297573630398291,0.147108194719975,0.0300625667633144,-0.101022432473676,-0.192736151381047,-0.207691133831833,-0.226155959102701,-0.223103921867847,-0.184648252708683,-0.162063177170762,-0.126201739661224,-0.0976651915153366,-0.116282618647948,-0.129558980619564,-0.146955592858233,-0.160537158553334,-0.108957729284297,-0.0758431252861286,-0.0944605524187396,-0.104990080878987,-0.145734777964291,-0.184343048985198,-0.177323363345033,-0.187547688081795,-0.185258660155654,-0.146497787273005,-0.123912711735083,-0.0914085151838853,-0.0616511521440563,-0.0840836258202351,-0.104532275293759,-0.120097665191515,-0.131237601098734,-0.0747749122539296,-0.0262475202197468,-0.0303677704868,-0.0271631313902031,-0.0526476423012362,-0.0933923393865406,-0.104227071570273,-0.136731268121471,-0.157027315733252,-0.123760109873341,-0.0961391728979095,-0.063940180070197,-0.0349458263390814,-0.0633297726232261,-0.0892720891194874,-0.0984282008240502,-0.113688386998321,-0.0776743476270412,-0.0404394933618191,-0.0444071417671297,-0.0320463909659699,-0.0396764840531056,-0.0721806806043035,-0.0839310239584924,-0.117198229818404,-0.140393712803296,-0.102701052952846,-0.0706546619868764,-0.0441019380436442,-0.0184648252708684,-0.0494430032046392,-0.075080115977415,-0.0682130321989929,-0.0744697085304442,-0.0463909659697849,-0.00595147260796593,0.00412025026705315,0.0302151686250571,0.0369296505417365,0.00640927819319385,-0.0120555470776745,-0.0473065771402412,-0.0720280787425608,-0.0302151686250573,0.00625667633145113,0.0257897146345184,0.0434915305966732,0.00427285212879586,-0.0253319090492905,-0.00717228750190763,-0.00488325957576694,0.0170914085151838,0.0521898367160078,0.0602777353883716,0.0901877002899434,0.111246757210438,0.0860674500228902,0.0653135968258812,0.0341828170303677,0.00778269494887826,0.0366244468182511,0.053715855333435,0.0564626888448038,0.0732488936365022,0.0326567984129405,-0.0193804364413247,-0.0245688997405769,-0.0289943537311156,-0.00427285212879608,0.0456279566610712,0.0756905234243857,0.130169388066534,0.178544178238974,0.167099038608271,0.151686250572257,0.133068823439646,0.121165878223714,0.168014649778727,0.195025179307187,0.18449565084694,0.190904929040134,0.160994964138562,0.122386693117656,0.122997100564627,0.108652525560812,0.109873340454753,0.14512437051732,0.164047001373417,0.199145429574241,0.227987181443613,0.191362734625362,0.151228444987029,0.120402868915001,0.0973599877918509,0.135815656951015,0.153975278498398,0.119639859606287,0.108957729284297,0.0782847550740118,0.0292995574546008,0.0106821303219898,-0.0227376773996644,-0.0430337250114452,-0.0204486494735237,-0.0079352968106212,0.0199908438882953,0.0491377994811536,0.0126659545246451,-0.0250267053258051,-0.0416603082557608,-0.055394475812605,-0.0158705936212423,0.0109873340454752,-0.0119029452159317,-0.0111399359072182,-0.0248741034640624,-0.0637875782084543,-0.0801159774149246,-0.113993590721807,-0.138409888600641,-0.113383183274836,-0.0962917747596522,-0.0689760415077065,-0.0390660766061347,-0.0822524034793226,-0.126506943384709,-0.129406378757821,-0.130932397375248,-0.0961391728979095,-0.0712650694338472,-0.0889668853960019,-0.0730962917747598,-0.0636349763467115,-0.0970547840683657,-0.120860674500229,-0.153975278498398,-0.173355714939722,-0.137646879291927,-0.111857164657409,-0.0869830611933467,-0.0621089577292844,-0.11643522050969,-0.174423927971921,-0.175339539142378,-0.172592705631009,-0.13947810163284,-0.10178544178239,-0.097970395238822,-0.0633297726232261,-0.0364718449565086,-0.0688234396459638,-0.102701052952846,-0.140393712803296,-0.163283992064703,-0.125743934075996,-0.0984282008240502,-0.0839310239584924,-0.0592095223561729,-0.0975125896535939,-0.14451396307035,-0.143140546314665,-0.147566000305204,-0.129864184343049,-0.0970547840683657,-0.0895772928429728,-0.0514268274072945,-0.0173966122386694,-0.0474591790019839,-0.0807263848618954,-0.111551960933923,-0.130016786204792,-0.0877460705020602,-0.0616511521440563,-0.0627193651762553,-0.0424233175644744,-0.0662292079963377,-0.10911033114604,-0.116282618647948,-0.134900045780559,-0.134747443918816,-0.106821303219899,-0.0952235617274532,-0.0538684571951779,-0.0112925377689609,-0.0386082710209066,-0.0724858843277889,-0.0938501449717688,-0.102395849229361,-0.0497482069281246,-0.0173966122386694,-0.0303677704868,-0.0166336029299559,-0.0271631313902031,-0.0599725316648864,-0.063940180070197,-0.0790477643827256,-0.0784373569357547,-0.0425759194262171,-0.0198382420265528,0.0259423164962611,0.0729436899130168,0.0444071417671294,0.00915611170456268,-0.0010682130321991,-0.000915611170456391,0.052647642301236,0.0828628109262932,0.0573783000152601,0.0614985502823133,0.0517320311307797,0.00869830611933455,-0.0144971768655579,-0.0466961696932704,-0.0633297726232261,-0.035708835647795,-0.0193804364413247,0.0122081489394169,0.0495956050663817,0.0154127880360139,-0.020296047611781,-0.0195330383030674,-0.0189226308560966,0.0210590569204943,0.0511216236838088,0.0366244468182511,0.0528002441629787,0.0585991149092018,0.0198382420265526,-0.0119029452159317,-0.0566152907065467,-0.0886616816725165,-0.0679078284755075,-0.0558522813978332,-0.0369296505417367,-0.0123607508011599,-0.0659240042728522,-0.12482832290554,-0.130932397375248,-0.133679230886617,-0.106516099496414,-0.0833206165115215,-0.0961391728979095,-0.0705020601251336,-0.0480695864489548,-0.0816419960323517,-0.11414619258355,-0.15016023195483,-0.171371890737067,-0.134594842057073,-0.108957729284297,-0.0909507095986572,-0.0622615595910271,-0.10010682130322,-0.146650389134748,-0.142377537005952,-0.142224935144209,-0.120555470776744,-0.0897298947047155,-0.0883564779490311,-0.0541736609186633,-0.0230428811231498,-0.0552418739508623,-0.0898824965664582,-0.121776285670685,-0.137341675568442,-0.0900350984282009,-0.0598199298031437,-0.0560048832595759,-0.0337250114451397,-0.0601251335266291,-0.103158858538074,-0.108347321837327,-0.124523119182054,-0.121013276361972,-0.0918663207691135,-0.0839310239584924,-0.0483747901724402,-0.0123607508011599,-0.0428811231497025,-0.0779795513505266,-0.104227071570273,-0.116130016786205,-0.0621089577292844,-0.0256371127727759,-0.0326567984129407,-0.017091408515184,-0.0329620021364262,-0.0723332824660462,-0.0834732183732643,-0.110941553486953,-0.124065313596826,-0.100564626888448,-0.0903403021516864,-0.0549366702273769,-0.0102243247367619,-0.0256371127727759,-0.0338776133068825,-0.00747749122539306,0.045170151075843,0.170608881428353,0.286586296352815,0.359835189989318,0.474286586296353,0.582939111857165,0.666717533953914,0.772012818556386,0.860674500228903,0.957118876850297,1.08866168167252,1.19502517930719,1.28490767587365,1.3161910575309,1.19609339233939,1.00534106516099,0.804517015107584,0.591027010529528,0.432473676178849,0.288875324278956,0.130627193651762,0.0361666412330229,-0.0332672058599116,-0.108042118113841,-0.146955592858233,-0.191057530901877,-0.221272699526934,-0.196703799786357,-0.181291011750343,-0.159468945521135,-0.12879597131085,-0.164047001373417,-0.193499160689761,-0.17488173355715,-0.165267816267359,-0.131237601098734,-0.100412025026705,-0.10911033114604,-0.0894246909812301,-0.0752327178391577,-0.103158858538074,-0.120708072638486,-0.150465435678315,-0.169082862810926,-0.125591332214253,-0.0961391728979095,-0.0830154127880361,-0.0697390508164201,-0.124980924767282,-0.175949946589348,-0.166946436746528,-0.164962612543873,-0.14283534259118,-0.107126506943385,-0.099038608271021,-0.0637875782084543,-0.0317411872424845,-0.0483747901724402,-0.0610407446970854,-0.0866778574698612,-0.106973905081642,-0.0605829391118573,-0.0294521593163438,-0.0320463909659699,-0.0268579276667176,-0.0698916526781628,-0.110636349763467,-0.10010682130322,-0.107736914390356,-0.103921867846788,-0.0749275141156723,-0.0665344117198231,-0.0338776133068825,-0.00198382420265538,-0.0277735388371739,-0.053258049748207,-0.0785899587974974,-0.0949183580039678,-0.039981687776591,0.00122081489394159,-0.00473065771402422,0.00213642606439787,-0.0209064550587518,-0.0457805585228141,-0.0296047611780865,-0.042118113840989,-0.0492904013428965,-0.0148023805890433,0.0070196856401647,0.0439493361819013,0.0788951625209826,0.0506638180985807,0.0186174271326109,-0.00625667633145135,-0.0254845109110332,0.0227376773996642,0.060582939111857,0.0479169845872119,0.0570730962917746,0.0511216236838088,0.0354036319243094,0.0489851976194108,0.0321989928277124,0.0192278345795818,0.0561574851213184,0.0854570425759193,0.123302304288112,0.162215779032504,0.143750953761636,0.126964748969937,0.124065313596826,0.110025942316496,0.144971768655577,0.18052800244163,0.176255150312834,0.193804364413246,0.196398596062872,0.177781168930261,0.180680604303372,0.155653898977567,0.13444224019533,0.173966122386693,0.208148939417061,0.237601098733404,0.26659545246452,0.238669311765603,0.216999847398138,0.22386693117656,0.211658782237143,0.23287044101938,0.267205859911491,0.272089119487258,0.297726232260033,0.31161300167862,0.295895009919121,0.292690370822524,0.260033572409583,0.227376773996643,0.26094918358004,0.287196703799786,0.293758583854723,0.298794445292232,0.248435830917137,0.210132763619716,0.21654204181291,0.197619410956814,0.196551197924615,0.21654204181291,0.21318480085457,0.227071570273157,0.231497024263696,0.199450633297726,0.175339539142377,0.127422554555165,0.0816419960323515,0.110178544178239,0.133526629024874,0.125743934075996,0.117503433541889,0.0599725316648862,0.0157179917594994,0.023348084846635,0.004730657714024,-0.00183122234091267,0.0250267053258049,0.0379978635739355,0.0676026247520219,0.0924767282160841,0.0759957271478711,0.0621089577292842,0.0273157332519456,-0.0103769265985046,0.0248741034640621,0.0523424385777505,0.0357088356477948,0.0257897146345184,-0.0161757973447277,-0.0494430032046392,-0.0373874561269649,-0.0549366702273769,-0.0648557912406532,-0.0291469555928583,-0.000457805585228251,0.0384556691591636,0.0714176712955897,0.0549366702273767,0.0373874561269646,0.0103769265985044,-0.0186174271326111,0.0230428811231496,0.0613459484205706,0.051579429269037,0.0503586143750953,0.0227376773996642,-0.00778269494887849,-0.00457805585228151,-0.0352510300625669,-0.0601251335266291,-0.0260949183580041,0.00671448191667927,0.0428811231497023,0.0767587364565847,0.0621089577292842,0.0486799938959254,0.0349458263390812,0.00671448191667927,0.0323515946894551,0.0631771707614832,0.0555470776743475,0.0614985502823133,0.04837479017244,0.0227376773996642,0.0206012513352662,-0.016023195482985,-0.0497482069281246,-0.0198382420265528,0.0093087135663054,0.0354036319243094,0.0611933465588279,0.0344880207538531,0.0117503433541888,0.00854570425759183,-0.0125133526629026,0.00625667633145113,0.0405920952235616,0.0459331603845566,0.0666870135815656,0.0708072638486188,0.050511216236838,0.0457805585228139,0.0105295284602471,-0.0238058904318634,0.00640927819319385,0.032962002136426,0.0450175492141003,0.0590569204944299,0.0279261406989164,0.0134289638333587,0.0376926598504501,0.0366244468182511,0.0567678925682892,0.0973599877918509,0.11307797955135,0.141461925835495,0.155653898977567,0.136578666259728,0.127727758278651,0.0946131542804821,0.0619563558675415,0.0978177933770791,0.126812147108195,0.127269952693423,0.12543873035251,0.0724858843277887,0.0317411872424842,0.0404394933618189,0.0256371127727757,0.0283839462841446,0.0653135968258812,0.0865252556081183,0.120097665191515,0.143750953761636,0.128338165725622,0.118876850297574,0.0882038760872881,0.0556996795360902,0.0958339691744238,0.126506943384709,0.110483747901724,0.0923241263543414,0.0354036319243094,-0.00473065771402422,0.00839310239584912,-0.00778269494887849,-0.0166336029299559,0.0184648252708682,0.0445597436288722,0.0773691439035555,0.100412025026705,0.0784373569357545,0.0585991149092018,0.0228902792614069,-0.0175492141004121,0.0172440103769265,0.0508164199603234,0.0357088356477948,0.0228902792614069,-0.020296047611781,-0.0605829391118573,-0.0602777353883718,-0.0907981077369145,-0.111857164657409,-0.0743171066687015,-0.038913474744392,-0.000763009308713677,0.0309781779337707,0.0132763619716159,-0.00503586143750965,-0.0289943537311156,-0.0645505875171678,-0.0366244468182513,0.000763009308713455,-0.000763009308713677,0.00457805585228129,-0.0158705936212423,-0.0454753547993287,-0.0460857622462995,-0.0810315885853808,-0.111399359072181,-0.0744697085304442,-0.0369296505417367,-0.00686708377842221,0.0163283992064702,-0.00930871356630562,-0.0296047611780865,-0.0392186784678774,-0.0692812452311919,-0.0531054478864643,-0.0184648252708684,-0.0137341675568443,-1.11022302462516e-16,-0.00717228750190763,-0.0302151686250573,-0.0299099649015719,-0.0637875782084543,-0.0956813673126813,-0.0563100869830613,-0.0199908438882955,-0.00274683351136895,0.00991912101327625,-0.0244162978788342,-0.0476117808637266,-0.0445597436288724,-0.0697390508164201,-0.0647031893789105,-0.0334198077216543,-0.0248741034640624,-0.00473065771402422,0.00259423164962601,-0.00671448191667949,0.0106821303219898,0.00869830611933455,0.0198382420265526,0.121776285670685,0.23287044101938,0.32397375247978,0.41904471234549,0.475660003052037,0.558675415840073,0.69235464672669,0.793682282923851,0.906760262475202,1.04776438272547,1.16404700137342,1.27407294368991,1.32809400274683,1.27269952693423,1.14954982450786,0.948725774454448,0.724858843277888,0.581870898824966,0.447886464214863,0.288875324278956,0.148786815199145,-0.0044254539905388,-0.10743171066687,-0.128643369449107,-0.162063177170762,-0.176865557759805,-0.144666564932092,-0.125591332214253,-0.10514268274073,-0.0955287654509386,-0.121318480085457,-0.134289638333588,-0.160079352968106,-0.185716465740882,-0.13047459179002,-0.0779795513505266,-0.0816419960323517,-0.0923241263543416,-0.138257286738898,-0.172592705631009,-0.157332519456737,-0.173660918663208,-0.182817030367771,-0.137646879291927,-0.103616664123302,-0.0755379215626432,-0.0569204944300322,-0.0795055699679537,-0.0930871356630552,-0.112009766519152,-0.14115672211201,-0.102395849229361,-0.0538684571951779,-0.0489851976194111,-0.0466961696932704,-0.0749275141156723,-0.101175034335419,-0.0895772928429728,-0.117198229818404,-0.141919731420723,-0.0953761635891959,-0.0503586143750955,-0.0215168625057227,-0.00259423164962624,-0.023500686708378,-0.0343354188921106,-0.0448649473523578,-0.081489394170609,-0.0669922173050512,-0.0289943537311156,-0.0215168625057227,-0.0123607508011599,-0.0279261406989166,-0.0509690218220663,-0.0451701510758432,-0.0784373569357547,-0.112009766519152,-0.0694338470929346,-0.0283839462841448,-0.01068213032199,-1.11022302462516e-16,-0.0300625667633146,-0.0456279566610714,-0.0413551045322754,-0.0674500228902794,-0.0582939111857166,-0.0172440103769267,0.000610407446970742,0.0199908438882953,0.0175492141004119,0.000305203723485315,0.00595147260796571,-0.0264001220814895,-0.0604303372501146,-0.0112925377689609,0.0343354188921104,0.0407446970853043,0.0386082710209063,-0.000457805585228251,-0.016023195482985,0.00488325957576671,-0.0115977414924463,-0.00915611170456291,0.0328094002746832,0.0579887074622309,0.0828628109262932,0.0894246909812298,0.0714176712955897,0.0698916526781626,0.0383030672974209,0.00579887074622299,0.0593621242179153,0.110941553486952,0.113840988860064,0.106363497634671,0.0598199298031435,0.0364718449565084,0.0628719670379977,0.051579429269037,0.0495956050663817,0.0958339691744238,0.131084999236991,0.164657408820387,0.182511826644285,0.165573019990844,0.157942926903708,0.126354341522966,0.0906455058751716,0.139020296047612,0.189073706699222,0.187089882496566,0.174729131695407,0.123454906149855,0.0895772928429726,0.10743171066687,0.0865252556081183,0.069128643369449,0.109262933007783,0.143903555623378,0.173508316801465,0.190904929040134,0.169235464672669,0.153364871051427,0.119639859606287,0.0718754768808178,0.0975125896535937,0.136883869983214,0.134594842057073,0.128643369449107,0.0897298947047153,0.0549366702273767,0.0581413093239736,0.0202960476117808,-0.0166336029299559,0.00991912101327625,0.0331146039981687,0.0476117808637264,0.0561574851213184,0.0241110941553486,-0.000152601861742824,-0.0251793071875478,-0.0692812452311919,-0.0550892720891196,-0.0198382420265528,-0.017091408515184,-0.0108347321837328,-0.0309781779337709,-0.0592095223561729,-0.0582939111857166,-0.0952235617274532,-0.131237601098734,-0.0943079505569969,-0.0570730962917749,-0.0383030672974211,-0.0274683351136885,-0.0587517167709447,-0.0763009308713567,-0.0775217457652984,-0.106516099496414,-0.0962917747596522,-0.0569204944300322,-0.04104990080879,-0.0216694643674654,-0.0257897146345187,-0.0460857622462995,-0.0445597436288724,-0.0811841904471236,-0.120555470776744,-0.082557607202808,-0.0459331603845568,-0.0384556691591638,-0.0361666412330231,-0.0734014954982452,-0.0920189226308562,-0.0781321532122693,-0.0993438119945064,-0.0985808026857929,-0.061803754005799,-0.0425759194262171,-0.0207538531970091,-0.017091408515184,-0.0373874561269649,-0.0415077063940181,-0.0770639401800703,-0.113840988860064,-0.0692812452311919,-0.0302151686250573,-0.0352510300625669,-0.0471539752784985,-0.0985808026857929,-0.127880360140394,-0.108194719975584,-0.122539294979399,-0.125591332214253,-0.0869830611933467,-0.0607355409736,-0.0303677704868,-0.013886769418587,-0.0323515946894553,-0.043186326873188,-0.079352968106211,-0.119334655882802,-0.078284755074012,-0.0393712803296201,-0.0489851976194111,-0.0651609949641387,-0.120250267053258,-0.154890889668854,-0.133221425301389,-0.143598351899893,-0.144819166793835,-0.0911033114603999,-0.0460857622462995,-0.00671448191667949,0.0177018159621546,0.00213642606439787,-0.00808789867236391,-0.0358614375095377,-0.0697390508164201,-0.022432473676179,0.0349458263390812,0.0454753547993284,0.0488325957576681,0.0160231954829848,-0.0105295284602473,0.00320463909659687,-0.0227376773996644,-0.0457805585228141,-0.00518846329925236,0.0334198077216541,0.0654661986876239,0.0889668853960017,0.0694338470929344,0.0529528460247214,0.0274683351136883,-0.0173966122386694,0.00122081489394159,0.0410499008087898,0.0479169845872119,0.0576835037387455,0.0387608728826491,0.0135815656951014,0.0189226308560963,-0.0144971768655579,-0.0462383641080422,-0.00808789867236391,0.0270105295284601,0.0445597436288722,0.0549366702273767,0.0245688997405767,0.00717228750190741,0.000305203723485315,-0.0340302151686252,-0.0265527239432322,0.00442545399053857,0.00808789867236369,0.0164810010682129,0.00320463909659687,-0.0231954829848925,-0.0262475202197468,-0.0677552266137648,-0.110178544178239,-0.0759957271478713,-0.0437967343201588,-0.0395238821913628,-0.0437967343201588,-0.0917137189073708,-0.122691896841142,-0.121165878223714,-0.147413398443461,-0.143445750038151,-0.104532275293759,-0.0856096444376622,-0.062871967037998,-0.0595147260796583,-0.0798107736914391,-0.0839310239584924,-0.120250267053258,-0.154585685945369,-0.105905692049443,-0.0616511521440563,-0.0592095223561729,-0.0659240042728522,-0.115214405615749,-0.141461925835495,-0.119182054021059,-0.131542804822219,-0.131390202960476,-0.0924767282160843,-0.0698916526781628,-0.0454753547993287,-0.0363192430947659,-0.0584465130474593,-0.0694338470929346,-0.106516099496414,-0.145734777964291,-0.103311460399817,-0.0662292079963377,-0.0785899587974974,-0.0967495803448803,-0.154585685945369,-0.192736151381047,-0.174576529833664,-0.185106058293911,-0.185106058293911,-0.136883869983214,-0.0994964138562491,-0.0611933465588281,-0.0373874561269649,-0.0593621242179156,-0.0790477643827256,-0.115214405615749,-0.154585685945369,-0.116282618647948,-0.079352968106211,-0.0921715244925989,-0.100564626888448,-0.132916221577903,-0.151075843125286,-0.114603998168778,-0.0930871356630552,-0.0480695864489548,0.0657714024111093,0.188158095528765,0.324278956203266,0.462841446665649,0.556996795360903,0.650541736609186,0.735693575461621,0.808026857927667,0.941706088814283,1.07675873645658,1.15992675110636,1.22050969021822,1.19105753090188,1.07416450480696,0.925682893331298,0.710056462688845,0.489241568747139,0.340454753547993,0.21089577292843,0.1057530901877,0.0294521593163435,-0.0665344117198231,-0.132763619716161,-0.16816725164047,-0.210437967343202,-0.20418129101175,-0.187242484358309,-0.203265679841294,-0.202197466809095,-0.213795208301541,-0.238974515489089,-0.237601098733405,-0.262017396612239,-0.282008240500534,-0.237143293148177,-0.199298031435984,-0.178391576377232,-0.161147566000305,-0.194719975583702,-0.215473828780711,-0.200671448191668,-0.206622920799634,-0.186021669464368,-0.150923241263544,-0.145429574240806,-0.127422554555166,-0.125133526629025,-0.151533648710514,-0.160994964138563,-0.192583549519304,-0.221120097665192,-0.180833206165115,-0.147260796581718,-0.140088509079811,-0.135815656951015,-0.181443613612086,-0.211200976651915,-0.190904929040134,-0.194262169998474,-0.181596215473829,-0.14283534259118,-0.125896535937739,-0.0982755989623074,-0.084694033267206,-0.110331146039982,-0.126812147108195,-0.160689760415077,-0.190447123454906,-0.146039981687777,-0.112162368380894,-0.118571646574088,-0.126354341522967,-0.179764993132916,-0.21989928277125,-0.204333892873493,-0.209522356172745,-0.201129253776896,-0.156722112009767,-0.12711735083168,-0.0875934686403175,-0.057530901877003,-0.0744697085304442,-0.0903403021516864,-0.119182054021059,-0.147413398443461,-0.102548451091103,-0.0656188005493668,-0.0773691439035557,-0.0827102090645507,-0.117808637265375,-0.149397222646116,-0.138562490462384,-0.153975278498398,-0.159316343659393,-0.115519609339234,-0.0787425606592402,-0.0355562337860523,0.00106821303219888,-0.0126659545246453,-0.0257897146345187,-0.0428811231497025,-0.0653135968258814,-0.0199908438882955,0.0273157332519456,0.0285365481458873,0.0352510300625666,0.0151075843125285,-0.0120555470776745,-0.00701968564016492,-0.0328094002746835,-0.0526476423012362,-0.0131237601098735,0.0247215016023194,0.0633297726232259,0.0970547840683655,0.0784373569357545,0.063787578208454,0.0602777353883716,0.0434915305966732,0.0767587364565847,0.118724248435831,0.122997100564627,0.138104684877155,0.132000610407447,0.106363497634671,0.10239584922936,0.0703494582633907,0.0439493361819013,0.081336792308866,0.115367007477491,0.140088509079811,0.16252098275599,0.131237601098733,0.105600488325957,0.1057530901877,0.085609644437662,0.0990386082710208,0.129864184343049,0.132305814130932,0.148634213337403,0.148023805890432,0.117198229818404,0.0998016175797344,0.0558522813978329,0.0143445750038149,0.0418129101175033,0.0650083931023957,0.0679078284755073,0.0700442545399053,0.021211658782237,-0.0140393712803297,-0.00412025026705337,-0.018159621547383,-0.0152601861742714,0.0108347321837325,0.0158705936212421,0.0346406226155958,0.0412025026705325,0.0117503433541888,-0.00991912101327647,-0.0546314665038915,-0.0982755989623074,-0.0718754768808181,-0.0531054478864643,-0.0651609949641387,-0.0749275141156723,-0.130169388066535,-0.170608881428354,-0.157637723180223,-0.168014649778727,-0.167404242331757,-0.136731268121471,-0.122234091255913,-0.0933923393865406,-0.0698916526781628,-0.0888142835342592,-0.105600488325958,-0.137494277430185,-0.168777659087441,-0.130627193651763,-0.103006256676332,-0.119029452159316,-0.126964748969938,-0.167251640470014,-0.20189226308561,-0.192430947657562,-0.208911948725775,-0.215321226918969,-0.178391576377232,-0.148939417060888,-0.1057530901877,-0.0662292079963377,-0.0785899587974974,-0.0935449412482833,-0.114603998168778,-0.13779948115367,-0.0959865710361667,-0.0625667633145125,-0.0763009308713567,-0.0778269494887839,-0.104837479017244,-0.139783305356325,-0.143293148176408,-0.17320311307798,-0.193041355104532,-0.15916374179765,-0.128948573172593,-0.0917137189073708,-0.0566152907065467,-0.078284755074012,-0.102395849229361,-0.117198229818404,-0.136578666259728,-0.0998016175797346,-0.0627193651762553,-0.0668396154433085,-0.0550892720891196,-0.0634823744849688,-0.0921715244925989,-0.0991912101327637,-0.132305814130933,-0.159774149244621,-0.131084999236991,-0.106058293911186,-0.0810315885853808,-0.0555470776743477,-0.0866778574698612,-0.113688386998321,-0.112314970242637,-0.122844498702884,-0.096902182206623,-0.0654661986876241,-0.0660766061345949,-0.0454753547993287,-0.0393712803296201,-0.0653135968258814,-0.0781321532122693,-0.111399359072181,-0.137189073706699,-0.10178544178239,-0.0717228750190753,-0.0515794292690372,-0.0282313444224021,-0.0581413093239739,-0.079352968106211,-0.058599114909202,-0.0560048832595759,-0.0320463909659699,0.00534106516099485,0.0164810010682129,0.0460857622462993,0.063787578208454,0.0401342896383335,0.0213642606439797,-0.0161757973447277,-0.0488325957576684,-0.0146497787273006,0.0134289638333587,0.0178544178238973,0.0213642606439797,-0.0321989928277126,-0.08042118113841,-0.0753853197009005,-0.0827102090645507,-0.0712650694338472,-0.0360140393712804,-0.0199908438882955,0.0158705936212421,0.0448649473523576,0.0262475202197466,0.00808789867236369,-0.0221272699526935,-0.0495956050663819,-0.0137341675568443,0.00763009308713555,-0.00701968564016492,-0.01068213032199,-0.053258049748207,-0.0984282008240502,-0.10346406226156,-0.125591332214253,-0.130779795513505,-0.103158858538074,-0.0888142835342592,-0.054326262780406,-0.022432473676179,-0.0486799938959256,-0.0811841904471236,-0.114603998168778,-0.141767129558981,-0.10514268274073,-0.0827102090645507,-0.106210895772929,-0.11078895162521,-0.138562490462384,-0.176255150312834,-0.181443613612086,-0.204639096596979,-0.214558217610255,-0.182817030367771,-0.159468945521135,-0.120708072638486,-0.082557607202808,-0.106668701358157,-0.135968258812758,-0.152449259880971,-0.164504806958645,-0.117656035403632,-0.0805737830001527,-0.0906455058751718,-0.0810315885853808,-0.0917137189073708,-0.128185563863879,-0.144666564932092,-0.179154585685945,-0.202350068670838,-0.176865557759805,-0.156874713871509,-0.125591332214253,-0.0903403021516864,-0.118876850297574,-0.149092018922631,-0.150770639401801,-0.154890889668854,-0.117656035403632,-0.0842362276819778,-0.0888142835342592,-0.0685182359224784,-0.0621089577292844,-0.0906455058751718,-0.107889516252098,-0.143140546314665,-0.16984587211964,-0.140546314665039,-0.11643522050969,-0.0932397375247979,-0.0676026247520221,-0.107126506943385,-0.14512437051732,-0.140088509079811,-0.144971768655578,-0.124675721043797,-0.0993438119945064,-0.10346406226156,-0.078284755074012,-0.0556996795360904,-0.0674500228902794,-0.0613459484205708,-0.0512742255455518,-0.016023195482985,0.0915611170456278,0.205096902182206,0.318785289180528,0.445139630703494,0.513047459179002,0.580955287654509,0.697695711887685,0.805737830001526,0.93361819014192,1.06989165267816,1.16816725164047,1.25896535937738,1.27926140698917,1.16496261254387,0.981840378452617,0.752479780253319,0.516252098275599,0.348847855943842,0.196245994201129,0.0512742255455515,-0.0462383641080422,-0.155043491530597,-0.240042728521288,-0.262169998473981,-0.283839462841447,-0.282771249809248,-0.256065924004273,-0.24523119182054,-0.207843735693576,-0.167404242331757,-0.178391576377232,-0.188463299252251,-0.197619410956814,-0.204486494735236,-0.158553334350679,-0.136426064397986,-0.159316343659393,-0.162063177170762,-0.189684114146193,-0.226003357240958,-0.227376773996643,-0.241568747138715,-0.241721349000458,-0.209980161757974,-0.191667938348848,-0.153975278498398,-0.114451396307035,-0.135968258812758,-0.16084236227682,-0.171829696322295,-0.178086372653746,-0.131542804822219,-0.103006256676332,-0.122691896841142,-0.119945063329773,-0.134900045780559,-0.170151075843125,-0.180375400579887,-0.204333892873493,-0.215473828780711,-0.184037845261712,-0.162063177170762,-0.128338165725622,-0.0920189226308562,-0.11979246146803,-0.149244620784374,-0.150770639401801,-0.150923241263544,-0.108347321837327,-0.0758431252861286,-0.085762246299405,-0.0711124675721045,-0.0700442545399055,-0.100564626888448,-0.116740424233176,-0.147566000305204,-0.168777659087441,-0.141004120250267,-0.120402868915001,-0.0955287654509386,-0.0653135968258814,-0.0972073859301085,-0.124370517320311,-0.108347321837327,-0.100869830611934,-0.0688234396459638,-0.0401342896383337,-0.0462383641080422,-0.0248741034640624,-0.011750343354189,-0.0396764840531056,-0.061803754005799,-0.0955287654509386,-0.119182054021059,-0.0866778574698612,-0.0604303372501146,-0.0404394933618191,-0.0161757973447277,-0.0550892720891196,-0.0932397375247979,-0.0819471997558371,-0.0766061345948422,-0.0486799938959256,-0.0111399359072182,0.000152601861742602,0.0399816877765908,0.0747749122539294,0.0572256981535174,0.0373874561269646,0.0105295284602471,-0.00869830611933477,0.0273157332519456,0.0528002441629787,0.0607355409735998,0.0811841904471233,0.0506638180985807,0.0123607508011597,0.0169388066534411,0.0149549824507858,0.0357088356477948,0.0784373569357545,0.101938043644132,0.149549824507859,0.192278345795819,0.17549214100412,0.153670074774912,0.132458415992675,0.118419044712345,0.161605371585533,0.187089882496566,0.174271326110178,0.177781168930261,0.147566000305204,0.106210895772928,0.100412025026705,0.0819471997558369,0.0799633755531816,0.111857164657409,0.130779795513505,0.168319853502213,0.203265679841294,0.175644742865863,0.142987944452922,0.118876850297574,0.0978177933770791,0.130169388066534,0.142987944452922,0.108652525560812,0.0978177933770791,0.0666870135815656,0.0144971768655576,-0.0134289638333589,-0.0544788646421487,-0.0802685792766673,-0.0637875782084543,-0.0541736609186633,-0.0265527239432322,0.00503586143750943,-0.0280787425606593,-0.0657714024111095,-0.0795055699679537,-0.0880512742255457,-0.0466961696932704,-0.0180070196856403,-0.0358614375095377,-0.0292995574546011,-0.038913474744392,-0.0827102090645507,-0.112162368380894,-0.152601861742713,-0.179307187547688,-0.157637723180223,-0.140698916526782,-0.112925377689608,-0.0787425606592402,-0.110941553486953,-0.14451396307035,-0.138409888600641,-0.13383183274836,-0.0972073859301085,-0.0668396154433085,-0.0738593010834733,-0.0526476423012362,-0.0422707157027317,-0.0744697085304442,-0.101175034335419,-0.140088509079811,-0.168319853502213,-0.142987944452922,-0.123607508011598,-0.104990080878987,-0.0788951625209829,-0.114451396307035,-0.150465435678315,-0.141614527697238,-0.140088509079811,-0.113993590721807,-0.0807263848618954,-0.0763009308713567,-0.0444071417671297,-0.0198382420265528,-0.0480695864489548,-0.0778269494887839,-0.11414619258355,-0.141309323973753,-0.113077979551351,-0.0929345338013125,-0.085762246299405,-0.0698916526781628,-0.111246757210438,-0.158553334350679,-0.159926751106364,-0.165878223714329,-0.147871204028689,-0.110483747901725,-0.0933923393865406,-0.0509690218220663,-0.0151075843125287,-0.0392186784678774,-0.0689760415077065,-0.0991912101327637,-0.121165878223714,-0.0856096444376622,-0.0630245688997407,-0.0701968564016482,-0.0604303372501146,-0.0889668853960019,-0.129558980619564,-0.134747443918816,-0.150770639401801,-0.147108194719976,-0.112009766519152,-0.0907981077369145,-0.0480695864489548,-0.00610407446970864,-0.0248741034640624,-0.0502060125133528,-0.0700442545399055,-0.084694033267206,-0.042118113840989,-0.016023195482985,-0.0350984282008242,-0.0338776133068825,-0.0552418739508623,-0.0920189226308562,-0.0987334045475356,-0.118419044712346,-0.12314970242637,-0.0875934686403175,-0.0607355409736,-0.0187700289943538,0.024416297878834,0.00747749122539284,-0.0126659545246453,-0.0161757973447277,-0.0155653898977569,0.0384556691591636,0.0799633755531816,0.0743171066687012,0.0900350984282007,0.0872882649168319,0.0566152907065465,0.0424233175644742,0.00915611170456268,-0.0154127880360142,0.00656188005493656,0.0224324736761787,0.0465435678315274,0.0752327178391575,0.0454753547993284,0.0187700289943536,0.023348084846635,0.0227376773996642,0.0572256981535174,0.0846940332672057,0.0721806806043033,0.0846940332672057,0.08774607050206,0.0607355409735998,0.0466961696932701,0.0128185563863878,-0.0166336029299559,0.00717228750190741,0.0250267053258049,0.0390660766061345,0.0579887074622309,0.0198382420265526,-0.0125133526629026,-0.00381504654356794,-0.00930871356630562,0.0070196856401647,0.0296047611780863,0.0247215016023194,0.0454753547993284,0.0564626888448038,0.0235006867083777,-0.00518846329925236,-0.0474591790019839,-0.0834732183732643,-0.0614985502823136,-0.0463909659697849,-0.0445597436288724,-0.0370822524034794,-0.0863726537463758,-0.132458415992675,-0.129253776896078,-0.1361208606745,-0.120708072638486,-0.0853044407141768,-0.0712650694338472,-0.0347932244773387,-0.00473065771402422,-0.0239584922936061,-0.0436441324584161,-0.0735540973599879,-0.100412025026705,-0.0677552266137648,-0.0466961696932704,-0.0550892720891196,-0.0520372348542653,-0.0889668853960019,-0.126659545246452,-0.122234091255913,-0.132458415992675,-0.12711735083168,-0.0929345338013125,-0.0726384861895316,-0.0320463909659699,0.00457805585228129,-0.0134289638333589,-0.0354036319243096,-0.0599725316648864,-0.0808789867236381,-0.0396764840531056,-0.0122081489394172,-0.0283839462841448,-0.0277735388371739,-0.0517320311307799,-0.0824050053410653,-0.08042118113841,-0.0985808026857929,-0.105295284602472,-0.0715702731573326,-0.0462383641080422,-0.00778269494887849,0.0294521593163435,0.0109873340454752,-0.0122081489394172,-0.0303677704868,-0.0492904013428965,-0.0112925377689609,0.0186174271326109,0.00595147260796571,0.0122081489394169,0.00228902792614059,-0.0161757973447277,0.000610407446970742,0.0103769265985044,0.0448649473523576,0.144361361208607,0.254387303525103,0.385624904623836,0.528918052800244,0.621699984739814,0.717381352052495,0.834579581870899,0.943689913016939,1.08942469098123,1.22279871814436,1.30505112162368,1.37952083015413,1.3790630245689,1.27147871204029,1.10880512742255,0.882649168319853,0.646574088203876,0.468335113688387,0.305508927208912,0.173050511216237,0.0805737830001525,-0.0317411872424845,-0.105447886464215,-0.116130016786205,-0.125591332214253,-0.104684877155501,-0.08042118113841,-0.0878986723638029,-0.0720280787425608,-0.0648557912406532,-0.0920189226308562,-0.107889516252098,-0.135510453227529,-0.155348695254082,-0.119487257744545,-0.0943079505569969,-0.0851518388524341,-0.0720280787425608,-0.11078895162521,-0.141309323973753,-0.124980924767282,-0.122234091255913,-0.10010682130322,-0.0651609949641387,-0.056462688844804,-0.0285365481458875,-0.00869830611933477,-0.0311307797955136,-0.0483747901724402,-0.078284755074012,-0.105447886464215,-0.0711124675721045,-0.0465435678315277,-0.051121623683809,-0.0520372348542653,-0.0993438119945064,-0.141004120250267,-0.134289638333588,-0.141767129558981,-0.130627193651763,-0.0892720891194874,-0.0647031893789105,-0.0253319090492905,0.00640927819319385,-0.011750343354189,-0.0300625667633146,-0.0531054478864643,-0.0734014954982452,-0.0338776133068825,-0.0103769265985046,-0.0312833816572563,-0.0404394933618191,-0.0784373569357547,-0.116893026094918,-0.113993590721807,-0.126354341522967,-0.123302304288112,-0.0811841904471236,-0.0497482069281246,-0.00778269494887849,0.0294521593163435,0.0134289638333587,-0.00427285212879608,-0.0196856401648101,-0.0338776133068825,0.0128185563863878,0.0509690218220661,0.0431863268731877,0.0471539752784983,0.0262475202197466,-0.00610407446970864,-0.00946131542804833,-0.0343354188921106,-0.0488325957576684,-0.013886769418587,0.0164810010682129,0.0535632534716922,0.090950709598657,0.0759957271478711,0.0613459484205706,0.0589043186326872,0.0500534106516098,0.0915611170456278,0.133526629024874,0.135510453227529,0.151228444987029,0.146650389134747,0.120402868915001,0.113840988860064,0.0840836258202349,0.0592095223561726,0.0874408667785746,0.112620173966122,0.139325499771097,0.170914085151839,0.149855028231344,0.133831832748359,0.147718602166946,0.148786815199145,0.180985808026858,0.216999847398138,0.220204486494735,0.242636960170914,0.251640470013734,0.22890279261407,0.216847245536395,0.18617427132611,0.16084236227682,0.191667938348848,0.215931634365939,0.229360598199298,0.247672821608423,0.215168625057226,0.190141919731421,0.204944300320464,0.200976651915153,0.215626430642454,0.242484358309171,0.242942163894399,0.260643979856554,0.26827407294369,0.237448496871662,0.212574393407599,0.170761483290096,0.12879597131085,0.144513963070349,0.151686250572257,0.137494277430185,0.128338165725622,0.0697390508164198,0.0157179917594994,0.00869830611933455,-0.0105295284602473,-0.0102243247367619,0.0141919731420722,0.0215168625057225,0.0488325957576681,0.0705020601251334,0.0433389287349304,0.0141919731420722,-0.0231954829848925,-0.0595147260796583,-0.0383030672974211,-0.0274683351136885,-0.0471539752784985,-0.0517320311307799,-0.0907981077369145,-0.134137036471845,-0.139172897909355,-0.157637723180223,-0.158095528765451,-0.124980924767282,-0.102548451091103,-0.0608881428353427,-0.022432473676179,-0.0407446970853046,-0.0631771707614834,-0.0830154127880361,-0.101022432473676,-0.0642453837936824,-0.0407446970853046,-0.0573783000152603,-0.0549366702273769,-0.0756905234243859,-0.108347321837327,-0.112772775827865,-0.135510453227529,-0.146497787273005,-0.117198229818404,-0.0956813673126813,-0.0605829391118573,-0.0241110941553488,-0.0436441324584161,-0.0656188005493668,-0.075080115977415,-0.085762246299405,-0.0457805585228141,-0.0148023805890433,-0.0262475202197468,-0.0183122234091257,-0.0302151686250573,-0.0660766061345949,-0.0843888295437205,-0.121165878223714,-0.147260796581718,-0.124370517320311,-0.104227071570273,-0.0755379215626432,-0.0424233175644744,-0.0653135968258814,-0.0865252556081185,-0.0807263848618954,-0.0820998016175798,-0.0483747901724402,-0.0193804364413247,-0.0260949183580041,-0.00854570425759205,-0.00488325957576694,-0.0360140393712804,-0.0573783000152603,-0.0944605524187396,-0.122997100564627,-0.100717228750191,-0.083625820235007,-0.0651609949641387,-0.0372348542652221,-0.0633297726232261,-0.0865252556081185,-0.0712650694338472,-0.0685182359224784,-0.043186326873188,-0.0137341675568443,-0.0144971768655579,0.00640927819319385,0.0192278345795818,-0.00534106516099507,-0.0253319090492905,-0.061803754005799,-0.0938501449717688,-0.0680604303372502,-0.0480695864489548,-0.0424233175644744,-0.0303677704868,-0.0694338470929346,-0.103921867846788,-0.0926293300778271,-0.0943079505569969,-0.0776743476270412,-0.0437967343201588,-0.0320463909659699,-0.00137341675568453,0.023348084846635,0.00640927819319385,-0.00656188005493678,-0.0300625667633146,-0.0512742255455518,-0.0126659545246453,0.0170914085151838,0.019075232717839,0.0296047611780863,-0.00167862047916996,-0.032504196551198,-0.0219746680909508,-0.0294521593163438,-0.0225850755379217,0.0138867694185868,0.0361666412330229,0.0730962917747595,0.102853654814589,0.0811841904471233,0.0569204944300319,0.0273157332519456,-1.11022302462516e-16,0.0352510300625666,0.0589043186326872,0.0392186784678772,0.031893789104227,-0.00137341675568453,-0.034640622615596,-0.0300625667633146,-0.0477643827254694,-0.0556996795360904,-0.0210590569204945,0.004730657714024,0.0370822524034792,0.064855791240653,0.0424233175644742,0.020143445750038,0.000610407446970742,-0.0219746680909508,0.0123607508011597,0.0416603082557606,0.0285365481458873,0.027620936975431,0.00274683351136873,-0.0347932244773387,-0.0479169845872121,-0.0860674500228904,-0.116740424233176,-0.0965969784831376,-0.0799633755531819,-0.0592095223561729,-0.0375400579887076,-0.0663818098580804,-0.0915611170456281,-0.0975125896535939,-0.110636349763467,-0.0798107736914391,-0.0483747901724402,-0.054326262780406,-0.0457805585228141,-0.0544788646421487,-0.0848466351289487,-0.0985808026857929,-0.136731268121471,-0.169693270257897,-0.145582176102549,-0.123912711735083,-0.105295284602472,-0.08042118113841,-0.10178544178239,-0.114451396307035,-0.0967495803448803,-0.099038608271021,-0.0764535327330994,-0.0444071417671297,-0.039981687776591,-0.0206012513352664,-0.0164810010682131,-0.0412025026705327,-0.0547840683656342,-0.0935449412482833,-0.132000610407447,-0.108194719975584,-0.0856096444376622,-0.0775217457652984,-0.0640927819319397,-0.0944605524187396,-0.113230581413093,-0.0918663207691135,-0.0936975431100261,-0.0796581718296964,-0.0474591790019839,-0.0369296505417367,-0.0120555470776745,0.00152601861742702,-0.0222798718144362,-0.0419655119792463,-0.0807263848618954,-0.118876850297574,-0.0918663207691135,-0.0698916526781628,-0.0770639401800703,-0.0784373569357547,-0.113993590721807,-0.127727758278651,-0.0824050053410653,-0.0437967343201588,0.0224324736761787,0.131084999236991,0.238821913627346,0.373569357546162,0.511063634976347,0.610560048832596,0.710056462688845,0.792614069891653,0.86952540820998,1.00473065771402,1.12391271173508,1.19227834579582,1.24004272852129,1.19380436441325,1.07004425453991,0.920036624446818,0.712955898061956,0.509537616358919,0.357393560201434,0.220051884632992,0.122386693117656,0.0531054478864641,-0.0323515946894553,-0.0920189226308562,-0.135815656951015,-0.172134900045781,-0.144971768655578,-0.122997100564627,-0.141767129558981,-0.147260796581718,-0.175339539142378,-0.206317717076148,-0.201281855638639,-0.216847245536396,-0.22325652372959,-0.182359224782542,-0.149855028231345,-0.116740424233176,-0.0872882649168321,-0.10743171066687,-0.123912711735083,-0.127575156416908,-0.137494277430185,-0.0976651915153366,-0.0595147260796583,-0.0647031893789105,-0.0610407446970854,-0.079352968106211,-0.112772775827865,-0.121623683808943,-0.153212269189684,-0.178391576377232,-0.147566000305204,-0.121318480085457,-0.10010682130322,-0.0773691439035557,-0.100564626888448,-0.114603998168778,-0.103769265985045,-0.108957729284297,-0.0811841904471236,-0.0457805585228141,-0.044254539905387,-0.0332672058599116,-0.0413551045322754,-0.0715702731573326,-0.0819471997558371,-0.113840988860064,-0.140546314665039,-0.103616664123302,-0.0721806806043035,-0.0608881428353427,-0.0497482069281246,-0.0813367923088663,-0.096902182206623,-0.0732488936365025,-0.0738593010834733,-0.0573783000152603,-0.0241110941553488,-0.0161757973447277,0.00183122234091245,0.00610407446970842,-0.0201434457500383,-0.0355562337860523,-0.0714176712955899,-0.104837479017244,-0.0701968564016482,-0.0398290859148483,-0.0381504654356784,-0.0358614375095377,-0.0766061345948422,-0.103921867846788,-0.0840836258202351,-0.0862200518846331,-0.072943689913017,-0.0300625667633146,-0.00457805585228151,0.0288417518693727,0.052647642301236,0.0422707157027315,0.0392186784678772,0.0157179917594994,-0.0123607508011599,0.0257897146345184,0.0534106516099495,0.0372348542652219,0.0239584922936059,-0.0215168625057227,-0.051121623683809,-0.0311307797955136,-0.0337250114451397,-0.0254845109110332,0.0199908438882953,0.0534106516099495,0.095223561727453,0.131237601098733,0.122234091255913,0.114146192583549,0.0972073859301082,0.0767587364565847,0.120250267053258,0.15748512131848,0.150618037540058,0.150312833816572,0.121318480085457,0.0914085151838851,0.0967495803448801,0.0758431252861284,0.0625667633145123,0.0955287654509384,0.123302304288112,0.158705936212422,0.192736151381047,0.178696780100717,0.165725621852586,0.154433084083626,0.135510453227529,0.172592705631009,0.207691133831833,0.199603235159469,0.20021364260644,0.176102548451091,0.139935907218068,0.128338165725622,0.08774607050206,0.0518846329925224,0.0709598657103615,0.0869830611933464,0.101327636197161,0.117961239127117,0.0921715244925987,0.0743171066687012,0.0703494582633907,0.0470013734167556,0.0608881428353425,0.0811841904471233,0.0689760415077063,0.0689760415077063,0.0491377994811536,0.00778269494887826,-0.014954982450786,-0.0619563558675417,-0.103921867846788,-0.0827102090645507,-0.0607355409736,-0.0486799938959256,-0.0352510300625669,-0.0669922173050512,-0.0872882649168321,-0.0753853197009005,-0.0859148481611477,-0.0718754768808181,-0.0419655119792463,-0.036777048679994,-0.019227834579582,-0.0180070196856403,-0.0480695864489548,-0.0676026247520221,-0.108042118113841,-0.142987944452922,-0.109415534869526,-0.079352968106211,-0.0749275141156723,-0.0688234396459638,-0.103616664123302,-0.12543873035251,-0.106821303219899,-0.114451396307035,-0.106516099496414,-0.0708072638486191,-0.052189836716008,-0.0242636960170915,-0.00839310239584934,-0.0262475202197468,-0.0386082710209066,-0.0747749122539296,-0.111094155348695,-0.0741645048069588,-0.0427285212879598,-0.0517320311307799,-0.0611933465588281,-0.108347321837327,-0.141004120250267,-0.124980924767282,-0.133068823439646,-0.129253776896078,-0.0886616816725165,-0.0601251335266291,-0.0236532885701207,0.00350984282008229,-0.011750343354189,-0.0267053258049749,-0.0572256981535176,-0.0914085151838853,-0.058599114909202,-0.0318937891042272,-0.0477643827254694,-0.0566152907065467,-0.0944605524187396,-0.127727758278651,-0.1214710819472,-0.141309323973753,-0.152601861742713,-0.118876850297574,-0.0906455058751718,-0.0537158553334352,-0.0189226308560966,-0.0292995574546011,-0.039981687776591,-0.0558522813978332,-0.0770639401800703,-0.0350984282008242,0.00457805585228129,-0.000610407446970964,0.000152601861742602,-0.0248741034640624,-0.0556996795360904,-0.056462688844804,-0.0878986723638029,-0.11414619258355,-0.0830154127880361,-0.052189836716008,-0.022432473676179,0.00595147260796571,-0.00732488936365035,-0.0137341675568443,-0.012818556386388,-0.0288417518693729,0.00167862047916973,0.0425759194262169,0.0508164199603234,0.0686708377842209,0.064855791240653,0.0454753547993284,0.0465435678315274,0.0144971768655576,-0.017091408515184,0.0120555470776742,0.0381504654356782,0.0532580497482068,0.0695864489546771,0.0444071417671294,0.0289943537311154,0.0344880207538531,0.0170914085151838,0.0317411872424842,0.0622615595910269,0.0651609949641384,0.0773691439035555,0.0720280787425605,0.0466961696932701,0.0404394933618189,0.00671448191667927,-0.0273157332519458,0.00427285212879586,0.0311307797955134,0.0332672058599114,0.0357088356477948,0.000305203723485315,-0.0158705936212423,0.00549366702273757,-0.0044254539905388,-0.00152601861742724,0.0245688997405767,0.0328094002746832,0.0517320311307797,0.0575309018770028,0.0343354188921104,0.0198382420265526,-0.0225850755379217,-0.0694338470929346,-0.0477643827254694,-0.0317411872424845,-0.0502060125133528,-0.0659240042728522,-0.113840988860064,-0.139783305356325,-0.117656035403632,-0.126049137799481,-0.125743934075996,-0.0901877002899436,-0.0676026247520221,-0.04104990080879,-0.0274683351136885,-0.0480695864489548,-0.0613459484205708,-0.0956813673126813,-0.133984434610102,-0.0991912101327637,-0.0677552266137648,-0.0801159774149246,-0.0946131542804823,-0.142987944452922,-0.174423927971921,-0.158248130627194,-0.17381352052495,-0.182054021059057,-0.143750953761636,-0.112772775827865,-0.0795055699679537,-0.0526476423012362,-0.0595147260796583,-0.0607355409736,-0.0801159774149246,-0.110636349763467,-0.0700442545399055,-0.0242636960170915,-0.0221272699526935,-0.0238058904318634,-0.0593621242179156,-0.0894246909812301,-0.0817945978940944,-0.112620173966122,-0.142377537005952,-0.113688386998321,-0.0849992369906914,-0.0592095223561729,-0.0364718449565086,-0.0479169845872121,-0.052189836716008,-0.0647031893789105,-0.0978177933770793,-0.0737066992217306,-0.0347932244773387,-0.0297573630398292,-0.0210590569204945,-0.0320463909659699,-0.0326567984129407,0.0102243247367617,0.0260949183580039,0.0511216236838088,0.151991454295742,0.265679841294064,0.379368228292385,0.501602319548298,0.59728368686098,0.706851823592248,0.81947199755837,0.898367160079353,1.01159774149245,1.13902029604761,1.22264611628262,1.26506943384709,1.2125743934076,1.0785899587975,0.920494430032046,0.700747749122539,0.473981382572867,0.33068823439646,0.210285365481459,0.0965969784831374,0.0151075843125285,-0.0642453837936824,-0.0976651915153366,-0.0953761635891959,-0.12879597131085,-0.143903555623379,-0.134137036471845,-0.143598351899893,-0.143598351899893,-0.149549824507859,-0.155959102701053,-0.133984434610102,-0.148939417060888,-0.178086372653746,-0.142377537005952,-0.115519609339234,-0.126812147108195,-0.137189073706699,-0.170456279566611,-0.172134900045781,-0.133526629024874,-0.138715092324126,-0.140546314665039,-0.110941553486953,-0.0988860064092783,-0.0871356630550894,-0.0859148481611477,-0.0985808026857929,-0.0911033114603999,-0.11414619258355,-0.147260796581718,-0.106973905081642,-0.0727910880512743,-0.086830459331604,-0.103158858538074,-0.143750953761636,-0.154280482221883,-0.117656035403632,-0.125133526629025,-0.131848008545704,-0.0930871356630552,-0.0654661986876241,-0.044254539905387,-0.033572409583397,-0.0433389287349307,-0.0393712803296201,-0.065008393102396,-0.104227071570273,-0.0654661986876241,-0.0204486494735237,-0.023500686708378,-0.0392186784678774,-0.0885090798107738,-0.112162368380894,-0.0854570425759195,-0.101480238058904,-0.120555470776744,-0.0863726537463758,-0.0576835037387457,-0.0355562337860523,-0.0178544178238976,-0.0245688997405769,-0.0198382420265528,-0.0358614375095377,-0.075080115977415,-0.0499008087898673,-0.00946131542804833,-0.00625667633145135,-0.00854570425759205,-0.0407446970853046,-0.0610407446970854,-0.042118113840989,-0.0671448191667939,-0.0964443766213949,-0.062871967037998,-0.0305203723485428,-0.0114451396307036,0.00534106516099485,-0.00183122234091267,0.00640927819319385,0.00869830611933455,-0.0199908438882955,-0.000610407446970964,0.0413551045322752,0.053715855333435,0.0621089577292842,0.0457805585228139,0.0361666412330229,0.0604303372501143,0.0376926598504501,0.00595147260796571,0.0431863268731877,0.0792003662444681,0.090950709598657,0.101175034335419,0.0883564779490309,0.0959865710361665,0.111399359072181,0.0880512742255454,0.0958339691744238,0.130321989928277,0.141461925835495,0.153059667327941,0.146039981687776,0.135663055089272,0.151686250572257,0.125896535937738,0.0907981077369143,0.129558980619563,0.166183427437815,0.169235464672669,0.16984587211964,0.143140546314665,0.139935907218068,0.16145276972379,0.138409888600641,0.130932397375248,0.158705936212422,0.170914085151839,0.181901419197314,0.176102548451091,0.158553334350679,0.161300167862048,0.124370517320311,0.0782847550740118,0.112772775827865,0.14344575003815,0.124523119182054,0.100412025026705,0.0549366702273767,0.0415077063940179,0.0688234396459636,0.0488325957576681,0.0317411872424842,0.0570730962917746,0.0711124675721043,0.0808789867236379,0.0759957271478711,0.0524950404394932,0.0450175492141003,0.00610407446970842,-0.042118113840989,-0.0105295284602473,0.0241110941553486,0.0140393712803295,-0.00198382420265538,-0.0489851976194111,-0.0717228750190753,-0.0488325957576684,-0.0708072638486191,-0.0921715244925989,-0.0601251335266291,-0.0328094002746835,-0.0109873340454755,0.00137341675568431,-0.00976651915153376,-0.00869830611933477,-0.0323515946894553,-0.0715702731573326,-0.0366244468182513,0.00686708377842199,0.00640927819319385,-0.0033572409583398,-0.0474591790019839,-0.0743171066687015,-0.0570730962917749,-0.0839310239584924,-0.112620173966122,-0.0792003662444683,-0.0465435678315277,-0.0238058904318634,-0.00518846329925236,-0.0111399359072182,-0.00488325957576694,-0.0151075843125287,-0.0534106516099497,-0.0344880207538533,0.00305203723485415,0.00747749122539284,0.00564626888448028,-0.0253319090492905,-0.0468487715550131,-0.0306729742102855,-0.0605829391118573,-0.0978177933770793,-0.0691286433694492,-0.0402868915000764,-0.0279261406989166,-0.0175492141004121,-0.0329620021364262,-0.0317411872424845,-0.0302151686250573,-0.0624141614527698,-0.0541736609186633,-0.0219746680909508,-0.0154127880360142,-0.00808789867236391,-0.0218220662292081,-0.0344880207538533,-0.0172440103769267,-0.0437967343201588,-0.0799633755531819,-0.0473065771402412,-0.0166336029299559,-0.0126659545246453,-0.0109873340454755,-0.0343354188921106,-0.0338776133068825,-0.0155653898977569,-0.0364718449565086,-0.032504196551198,0.000457805585228029,0.0119029452159315,0.023348084846635,0.0192278345795818,0.0103769265985044,0.0267053258049747,0.00335724095833958,-0.0297573630398292,0.010071722875019,0.0453227529375857,0.0428811231497023,0.0413551045322752,0.0195330383030672,0.027620936975431,0.0668396154433083,0.0579887074622309,0.0546314665038912,0.0849992369906912,0.0996490157179916,0.11246757210438,0.110331146039982,0.0933923393865404,0.0944605524187394,0.0601251335266289,0.0167862047916983,0.0528002441629787,0.085609644437662,0.0698916526781626,0.0520372348542651,0.0122081489394169,0.0024416297878833,0.0352510300625666,0.0209064550587516,0.00732488936365012,0.0387608728826491,0.0611933465588279,0.0808789867236379,0.0895772928429726,0.0758431252861284,0.073401495498245,0.0390660766061345,-0.0100717228750192,0.0163283992064702,0.0466961696932701,0.031893789104227,0.00915611170456268,-0.0470013734167558,-0.0802685792766673,-0.0634823744849688,-0.0869830611933467,-0.110025942316496,-0.0798107736914391,-0.0547840683656342,-0.0347932244773387,-0.0210590569204945,-0.0332672058599116,-0.0343354188921106,-0.056462688844804,-0.0982755989623074,-0.0726384861895316,-0.0364718449565086,-0.04104990080879,-0.0500534106516101,-0.0886616816725165,-0.114603998168778,-0.0998016175797346,-0.126964748969938,-0.157179917594995,-0.129558980619564,-0.104837479017244,-0.0872882649168321,-0.0697390508164201,-0.0792003662444683,-0.0756905234243859,-0.0787425606592402,-0.108347321837327,-0.0898824965664582,-0.0592095223561729,-0.061803754005799,-0.0614985502823136,-0.0828628109262934,-0.100412025026705,-0.0853044407141768,-0.112162368380894,-0.146192583549519,-0.118419044712346,-0.0927819319395698,-0.0820998016175798,-0.0700442545399055,-0.0851518388524341,-0.0834732183732643,-0.0747749122539296,-0.100259423164963,-0.0912559133221426,-0.0579887074622311,-0.0488325957576684,-0.0376926598504503,-0.0465435678315277,-0.0613459484205708,-0.052189836716008,-0.0859148481611477,-0.129101175034336,-0.103158858538074,-0.077216542041813,-0.0717228750190753,-0.0540210590569206,-0.0473065771402412,-0.00305203723485438,0.0773691439035555,0.131084999236991,0.215931634365939,0.340912559133221,0.456889974057683,0.583396917442393,0.696017091408515,0.790019838242026,0.897756752632382,0.967801007172287,1.02578971463452,1.14329314817641,1.22630856096444,1.21501602319548,1.12894857317259,0.952083015412788,0.764535327330993,0.601403937128033,0.39935907218068,0.221883106973905,0.10743171066687,0.0120555470776742,-0.0462383641080422,-0.085762246299405,-0.126049137799481,-0.14115672211201,-0.18052800244163,-0.228139783305356,-0.204028689150008,-0.182054021059057,-0.198840225850755,-0.210132763619716,-0.243399969479628,-0.247978025331909,-0.204486494735236,-0.202807874256066,-0.205249504043949,-0.172134900045781,-0.153212269189684,-0.133374027163131,-0.117198229818404,-0.125743934075996,-0.123607508011598,-0.14451396307035,-0.179154585685945,-0.146345185411262,-0.112772775827865,-0.121776285670685,-0.13215321226919,-0.170914085151839,-0.191515336487105,-0.169388066534412,-0.190447123454906,-0.21486342133374,-0.186784678773081,-0.160231954829849,-0.133068823439646,-0.105600488325958,-0.104074469708531,-0.0923241263543416,-0.096902182206623,-0.124675721043797,-0.0961391728979095,-0.0622615595910271,-0.0676026247520221,-0.0712650694338472,-0.0991912101327637,-0.11979246146803,-0.105600488325958,-0.13444224019533,-0.169693270257897,-0.146650389134748,-0.12314970242637,-0.1057530901877,-0.0848466351289487,-0.0898824965664582,-0.0817945978940944,-0.077216542041813,-0.103158858538074,-0.0877460705020602,-0.0584465130474593,-0.0592095223561729,-0.0547840683656342,-0.0688234396459638,-0.083625820235007,-0.0703494582633909,-0.0970547840683657,-0.132763619716161,-0.108805127422555,-0.0860674500228904,-0.0766061345948422,-0.0613459484205708,-0.0706546619868764,-0.0601251335266291,-0.0366244468182513,-0.0512742255455518,-0.0436441324584161,-0.019227834579582,-0.0180070196856403,-0.00610407446970864,-0.00427285212879608,-0.00747749122539306,0.0117503433541888,-0.00763009308713577,-0.0387608728826493,-0.00885090798107748,0.0149549824507858,0.0151075843125285,0.024416297878834,0.0128185563863878,0.0273157332519456,0.0692812452311917,0.0671448191667937,0.0721806806043033,0.0991912101327635,0.107126506943385,0.124370517320311,0.133984434610102,0.128643369449107,0.139630703494583,0.116740424233176,0.0814893941706088,0.11078895162521,0.133679230886617,0.122386693117656,0.117198229818404,0.0875934686403173,0.0840836258202349,0.122997100564627,0.121776285670685,0.120708072638486,0.148176407752174,0.160231954829849,0.17884938196246,0.191667938348848,0.181596215473829,0.183122234091256,0.157942926903708,0.1214710819472,0.150770639401801,0.172440103769266,0.149244620784373,0.126659545246452,0.0785899587974972,0.0528002441629787,0.0706546619868761,0.0492904013428963,0.0288417518693727,0.049443003204639,0.0608881428353425,0.075537921562643,0.0871356630550892,0.0720280787425605,0.0660766061345947,0.0401342896383335,-0.000457805585228251,0.0221272699526933,0.0437967343201586,0.0235006867083777,0.00457805585228129,-0.0412025026705327,-0.0747749122539296,-0.0677552266137648,-0.096902182206623,-0.126201739661224,-0.106821303219899,-0.0917137189073708,-0.0753853197009005,-0.0579887074622311,-0.0717228750190753,-0.0752327178391577,-0.0834732183732643,-0.108957729284297,-0.0808789867236381,-0.0488325957576684,-0.0550892720891196,-0.0569204944300322,-0.0830154127880361,-0.108194719975584,-0.101175034335419,-0.129711582481306,-0.160384556691592,-0.134900045780559,-0.109720738593011,-0.0903403021516864,-0.0683656340607356,-0.0770639401800703,-0.0734014954982452,-0.0660766061345949,-0.0862200518846331,-0.0694338470929346,-0.0416603082557608,-0.0430337250114452,-0.0360140393712804,-0.0466961696932704,-0.0643979856554251,-0.0582939111857166,-0.0888142835342592,-0.125896535937739,-0.104532275293759,-0.0860674500228904,-0.0808789867236381,-0.0697390508164201,-0.0885090798107738,-0.0878986723638029,-0.0640927819319397,-0.0726384861895316,-0.0630245688997407,-0.0413551045322754,-0.0451701510758432,-0.0364718449565086,-0.0379978635739357,-0.0546314665038915,-0.054326262780406,-0.0849992369906914,-0.122234091255913,-0.100564626888448,-0.0848466351289487,-0.0903403021516864,-0.0872882649168321,-0.113688386998321,-0.118419044712346,-0.0863726537463758,-0.0897298947047155,-0.0854570425759195,-0.0604303372501146,-0.0535632534716925,-0.0343354188921106,-0.0231954829848925,-0.035708835647795,-0.036777048679994,-0.0637875782084543,-0.0981229971005647,-0.0705020601251336,-0.0518846329925226,-0.0680604303372502,-0.0773691439035557,-0.113840988860064,-0.129558980619564,-0.101327636197162,-0.10514268274073,-0.101022432473676,-0.0613459484205708,-0.033572409583397,0.000915611170456168,0.0294521593163435,0.02868915000763,0.0343354188921104,0.0169388066534411,-0.00991912101327647,0.0274683351136883,0.0584465130474591,0.0479169845872119,0.0383030672974209,-0.00457805585228151,-0.0341828170303679,-0.0198382420265528,-0.0366244468182513,-0.0485273920341829,-0.0186174271326111,0.00350984282008229,0.0311307797955134,0.0560048832595757,0.0466961696932701,0.043033725011445,0.0257897146345184,-0.0044254539905388,0.0239584922936059,0.0514268274072943,0.0392186784678772,0.0321989928277124,-0.000915611170456391,-0.0305203723485428,-0.0256371127727759,-0.053258049748207,-0.0801159774149246,-0.0595147260796583,-0.0422707157027317,-0.0215168625057227,0.0024416297878833,-0.00869830611933477,-0.0123607508011599,-0.0173966122386694,-0.04104990080879,-0.0169388066534413,0.010071722875019,0.000305203723485315,-0.0033572409583398,-0.0294521593163438,-0.059667327941401,-0.061803754005799,-0.0975125896535939,-0.13779948115367,-0.128185563863879,-0.121928887532428,-0.117045627956661,-0.102548451091103,-0.117961239127117,-0.118266442850603,-0.105295284602472,-0.119334655882802,-0.103921867846788,-0.0822524034793226,-0.0900350984282009,-0.0837784220967497,-0.0903403021516864,-0.109568136731268,-0.10911033114604,-0.140088509079811,-0.175034335418892,-0.153364871051427,-0.1361208606745,-0.13047459179002,-0.117198229818404,-0.138715092324126,-0.143445750038151,-0.118724248435831,-0.124370517320311,-0.11414619258355,-0.0914085151838853,-0.0930871356630552,-0.0799633755531819,-0.0763009308713567,-0.0952235617274532,-0.101632839920647,-0.134900045780559,-0.172592705631009,-0.14848161147566,-0.128643369449107,-0.131542804822219,-0.126201739661224,-0.152296658019228,-0.16084236227682,-0.130627193651763,-0.131695406683962,-0.125133526629025,-0.0978177933770793,-0.0898824965664582,-0.0711124675721045,-0.0607355409736,-0.0802685792766673,-0.0914085151838853,-0.12482832290554,-0.16481001068213,-0.142377537005952,-0.126506943384709,-0.141919731420723,-0.143445750038151,-0.164657408820388,-0.157179917594995,-0.0906455058751718,-0.033572409583397,0.0482221883106973,0.175034335418892,0.300167862047917,0.446360445597436,0.593773844040897,0.703494582633908,0.814436136120861,0.909659697848314,0.993743323668549,1.12696474896994,1.22966580192278,1.25041965511979,1.21516862505723,1.07981077369144,0.892110483747902,0.707462231039219,0.482527086830459,0.271783915763772,0.124217915458568,0.00137341675568431,-0.0743171066687015,-0.111704562795666,-0.156111704562796,-0.176255150312834,-0.193041355104532,-0.21822066229208,-0.191667938348848,-0.17381352052495,-0.195482984892416,-0.199603235159469,-0.21822066229208,-0.234854265222036,-0.220814893941706,-0.238364108042118,-0.259575766824355,-0.242636960170914,-0.232870441019381,-0.213337402716313,-0.18388524339997,-0.191973142072333,-0.191973142072333,-0.181291011750343,-0.186021669464368,-0.153975278498398,-0.131542804822219,-0.150007630093087,-0.150923241263544,-0.162673584617732,-0.182359224782542,-0.178086372653746,-0.202197466809095,-0.230734014954983,-0.213337402716313,-0.201129253776896,-0.188768502975736,-0.166183427437815,-0.178086372653746,-0.175034335418892,-0.150770639401801,-0.152754463604456,-0.13383183274836,-0.115824813062719,-0.128643369449107,-0.121013276361972,-0.120097665191515,-0.135968258812758,-0.1361208606745,-0.16481001068213,-0.199450633297726,-0.184037845261712,-0.174729131695407,-0.173508316801465,-0.159011139935907,-0.178544178238975,-0.181748817335572,-0.150770639401801,-0.148634213337403,-0.135815656951015,-0.11475660003052,-0.11811384098886,-0.103311460399817,-0.0921715244925989,-0.102853654814589,-0.100564626888448,-0.121776285670685,-0.151228444987029,-0.129864184343049,-0.118724248435831,-0.12879597131085,-0.125743934075996,-0.152144056157485,-0.160231954829849,-0.126964748969938,-0.122386693117656,-0.112162368380894,-0.083625820235007,-0.0746223103921869,-0.0509690218220663,-0.0286891500076302,-0.033572409583397,-0.0296047611780865,-0.0448649473523578,-0.0688234396459638,-0.0358614375095377,-0.0140393712803297,-0.0285365481458875,-0.034640622615596,-0.0683656340607356,-0.0859148481611477,-0.058599114909202,-0.0581413093239739,-0.0520372348542653,-0.0163283992064704,0.00732488936365012,0.0447123454906149,0.0816419960323515,0.0817945978940942,0.0860674500228902,0.0776743476270409,0.0598199298031435,0.0975125896535937,0.125286128490767,0.113383183274836,0.111551960933923,0.0831680146497786,0.0581413093239736,0.0695864489546771,0.0541736609186631,0.0425759194262169,0.0689760415077063,0.0885090798107736,0.118724248435831,0.153670074774912,0.150312833816572,0.150618037540058,0.146955592858233,0.13047459179002,0.163436593926446,0.188615901113993,0.170303677704868,0.160537158553334,0.128643369449107,0.0918663207691133,0.0820998016175796,0.0413551045322752,0.000457805585228029,0.00656188005493656,0.0102243247367617,0.0199908438882953,0.0383030672974209,0.0199908438882953,0.0093087135663054,0.00610407446970842,-0.017091408515184,-0.0033572409583398,0.00976651915153354,-0.0119029452159317,-0.0180070196856403,-0.0373874561269649,-0.0685182359224784,-0.0795055699679537,-0.118876850297574,-0.161147566000305,-0.155501297115825,-0.153212269189684,-0.149244620784374,-0.132305814130933,-0.151228444987029,-0.155959102701053,-0.133068823439646,-0.134137036471845,-0.117503433541889,-0.101022432473676,-0.114603998168778,-0.107279108805128,-0.105447886464215,-0.121928887532428,-0.123912711735083,-0.15351747291317,-0.189073706699222,-0.172592705631009,-0.162063177170762,-0.163131390202961,-0.150923241263544,-0.169998473981383,-0.17152449259881,-0.138257286738898,-0.134900045780559,-0.122539294979399,-0.0996490157179919,-0.0988860064092783,-0.0801159774149246,-0.0662292079963377,-0.0785899587974974,-0.0819471997558371,-0.109720738593011,-0.144666564932092,-0.123607508011598,-0.110331146039982,-0.122386693117656,-0.124370517320311,-0.156416908286281,-0.171066687013582,-0.143445750038151,-0.143140546314665,-0.136883869983214,-0.111551960933923,-0.103921867846788,-0.0799633755531819,-0.0563100869830613,-0.0621089577292844,-0.0616511521440563,-0.0808789867236381,-0.111704562795666,-0.0915611170456281,-0.0859148481611477,-0.115672211200977,-0.13215321226919,-0.17152449259881,-0.192583549519304,-0.1664886311613,-0.166183427437815,-0.162368380894247,-0.130169388066535,-0.110178544178239,-0.0763009308713567,-0.0412025026705327,-0.0450175492141005,-0.0482221883106975,-0.0624141614527698,-0.0856096444376622,-0.0546314665038915,-0.032504196551198,-0.0491377994811538,-0.0546314665038915,-0.0833206165115215,-0.10743171066687,-0.0959865710361667,-0.112162368380894,-0.125896535937739,-0.100564626888448,-0.0813367923088663,-0.0526476423012362,-0.0189226308560966,-0.0206012513352664,-0.0161757973447277,-0.0134289638333589,-0.0245688997405769,0.0140393712803295,0.049443003204639,0.0460857622462993,0.0549366702273767,0.0437967343201586,0.0260949183580039,0.0341828170303677,0.010071722875019,-0.0172440103769267,-0.000763009308713677,0.00915611170456268,0.021211658782237,0.0427285212879596,0.0303677704867998,0.0273157332519456,0.032962002136426,0.0166336029299556,0.0361666412330229,0.0602777353883716,0.0528002441629787,0.0589043186326872,0.0497482069281244,0.0289943537311154,0.0306729742102853,0.00289943537311144,-0.0294521593163438,-0.0129711582481307,-0.00305203723485438,-0.000152601861742824,0.0129711582481305,-0.00701968564016492,-0.0125133526629026,0.0070196856401647,-0.00137341675568453,0.00793529681062098,0.0245688997405767,0.0148023805890431,0.0216694643674652,0.0193804364413245,-0.0010682130321991,-0.00640927819319407,-0.0408972989470473,-0.0843888295437205,-0.0744697085304442,-0.0701968564016482,-0.081489394170609,-0.0816419960323517,-0.113383183274836,-0.128032962002137,-0.105905692049443,-0.112162368380894,-0.108652525560812,-0.0889668853960019,-0.0875934686403175,-0.0683656340607356,-0.0549366702273769,-0.0685182359224784,-0.0721806806043035,-0.0996490157179919,-0.135968258812758,-0.116282618647948,-0.104837479017244,-0.121318480085457,-0.126812147108195,-0.159011139935907,-0.171829696322295,-0.141461925835495,-0.142072333282466,-0.140088509079811,-0.115519609339234,-0.104990080878987,-0.0788951625209829,-0.053258049748207,-0.0578361056004884,-0.0552418739508623,-0.0712650694338472,-0.0970547840683657,-0.0668396154433085,-0.0491377994811538,-0.0721806806043035,-0.0895772928429728,-0.134747443918816,-0.163436593926446,-0.145734777964291,-0.154433084083626,-0.158400732488936,-0.126201739661224,-0.102701052952846,-0.0695864489546774,-0.034640622615596,-0.0323515946894553,-0.0257897146345187,-0.0338776133068825,-0.0572256981535176,-0.0285365481458875,-0.00885090798107748,-0.0305203723485428,-0.0441019380436442,-0.0799633755531819,-0.109262933007783,-0.101938043644133,-0.120708072638486,-0.128948573172593,-0.079352968106211,-0.0178544178238976,0.0654661986876239,0.169082862810926,0.252861284907676,0.355104532275294,0.464825270868304,0.564169082862811,0.711735083168014,0.853349610865252,0.95162520982756,1.05798870746223,1.14100412025027,1.20509690218221,1.26293300778269,1.22966580192278,1.11796123912712,0.987028841751869,0.809858080268579,0.616664123302304,0.439340759957271,0.253166488631161,0.110025942316496,0.0114451396307034,-0.0779795513505266,-0.106058293911186,-0.107736914390356,-0.128948573172593,-0.133221425301389,-0.148023805890432,-0.170456279566611,-0.170608881428354,-0.201281855638639,-0.233480848466351,-0.206165115214406,-0.178544178238975,-0.161452769723791,-0.138715092324126,-0.151228444987029,-0.151075843125286,-0.126964748969938,-0.133679230886617,-0.122386693117656,-0.0967495803448803,-0.0940027468335115,-0.0798107736914391,-0.078284755074012,-0.095833969174424,-0.0994964138562491,-0.133068823439646,-0.172440103769266,-0.151075843125286,-0.133221425301389,-0.138104684877156,-0.13444224019533,-0.157790325041966,-0.160231954829849,-0.127727758278651,-0.131390202960476,-0.127269952693423,-0.0970547840683657,-0.0820998016175798,-0.0590569204944301,-0.0473065771402412,-0.0608881428353427,-0.0645505875171678,-0.0961391728979095,-0.133984434610102,-0.102548451091103,-0.0758431252861286,-0.0886616816725165,-0.0978177933770793,-0.132000610407447,-0.144666564932092,-0.115672211200977,-0.122081489394171,-0.124370517320311,-0.0915611170456281,-0.0692812452311919,-0.042118113840989,-0.0210590569204945,-0.0251793071875478,-0.02136426064398,-0.0447123454906151,-0.082557607202808,-0.054326262780406,-0.0247215016023197,-0.0328094002746835,-0.0422707157027317,-0.0834732183732643,-0.107126506943385,-0.086830459331604,-0.103158858538074,-0.119334655882802,-0.0912559133221426,-0.0672974210285367,-0.0392186784678774,-0.0109873340454755,-0.00854570425759205,0.00152601861742702,-0.00579887074622321,-0.0300625667633146,0.00534106516099485,0.0425759194262169,0.0401342896383335,0.0389134747443918,0.0109873340454752,-0.00839310239584934,0.00793529681062098,-0.0123607508011599,-0.0349458263390814,-0.00640927819319407,0.0198382420265526,0.044101938043644,0.0715702731573324,0.0720280787425605,0.0836258202350068,0.0906455058751716,0.0735540973599877,0.101632839920647,0.137341675568442,0.138867694185869,0.144361361208607,0.128032962002136,0.111399359072181,0.123302304288112,0.0981229971005645,0.0685182359224781,0.0949183580039675,0.119029452159316,0.134137036471845,0.156111704562796,0.153517472913169,0.16816725164047,0.191362734625362,0.179001983824203,0.190904929040134,0.21318480085457,0.207996337555318,0.208606745002289,0.193804364413246,0.175339539142377,0.180833206165115,0.146039981687776,0.0994964138562489,0.112772775827865,0.123454906149855,0.115061803754006,0.112772775827865,0.0872882649168319,0.0846940332672057,0.1057530901877,0.0872882649168319,0.0819471997558369,0.0955287654509384,0.0868304593316037,0.0842362276819776,0.0705020601251334,0.0466961696932701,0.0428811231497023,0.004730657714024,-0.0439493361819015,-0.0282313444224021,-0.0164810010682131,-0.0349458263390814,-0.0447123454906151,-0.0723332824660462,-0.0720280787425608,-0.0376926598504503,-0.0480695864489548,-0.0576835037387457,-0.0402868915000764,-0.0361666412330231,-0.0262475202197468,-0.0248741034640624,-0.0401342896383337,-0.0386082710209066,-0.065008393102396,-0.102548451091103,-0.0746223103921869,-0.0534106516099497,-0.0718754768808181,-0.0849992369906914,-0.116740424233176,-0.11979246146803,-0.0811841904471236,-0.0869830611933467,-0.0975125896535939,-0.072943689913017,-0.0582939111857166,-0.0405920952235618,-0.0259423164962614,-0.0289943537311156,-0.0189226308560966,-0.0352510300625669,-0.0691286433694492,-0.0395238821913628,-0.00930871356630562,-0.0184648252708684,-0.0297573630398292,-0.0694338470929346,-0.0892720891194874,-0.0679078284755075,-0.0880512742255457,-0.111246757210438,-0.0888142835342592,-0.0715702731573326,-0.0531054478864643,-0.0334198077216543,-0.0364718449565086,-0.0288417518693729,-0.0375400579887076,-0.0642453837936824,-0.0317411872424845,0.00366244468182501,-0.00137341675568453,-0.0079352968106212,-0.0419655119792463,-0.0686708377842211,-0.0607355409736,-0.0901877002899436,-0.122081489394171,-0.100412025026705,-0.0769113383183276,-0.0544788646421487,-0.0288417518693729,-0.0299099649015719,-0.0196856401648101,-0.014954982450786,-0.0375400579887076,-0.0183122234091257,0.00946131542804811,0.00579887074622299,0.00808789867236369,-0.00854570425759205,-0.0248741034640624,-0.0134289638333589,-0.0412025026705327,-0.0773691439035557,-0.0566152907065467,-0.0358614375095377,-0.0253319090492905,-0.00640927819319407,-0.00671448191667949,0.0125133526629024,0.0392186784678772,0.0291469555928581,0.0454753547993284,0.0798107736914389,0.089882496566458,0.103006256676331,0.0979703952388218,0.0863726537463756,0.0959865710361665,0.0645505875171676,0.021211658782237,0.0399816877765908,0.0555470776743475,0.0465435678315274,0.0431863268731877,0.0186174271326109,0.0209064550587516,0.0534106516099495,0.0477643827254691,0.0518846329925224,0.0758431252861284,0.0798107736914389,0.088814283534259,0.0863726537463756,0.0729436899130168,0.0779795513505264,0.0465435678315274,-1.11022302462516e-16,0.0154127880360139,0.0256371127727757,0.00396764840531043,-0.00808789867236391,-0.0363192430947659,-0.0373874561269649,-0.00396764840531066,-0.0137341675568443,-0.0204486494735237,0.00350984282008229,0.0137341675568441,0.0264001220814893,0.02868915000763,0.0119029452159315,0.00854570425759183,-0.0247215016023197,-0.0711124675721045,-0.0514268274072945,-0.0354036319243096,-0.0589043186326874,-0.0790477643827256,-0.121776285670685,-0.140546314665039,-0.116282618647948,-0.129558980619564,-0.140393712803296,-0.109873340454754,-0.0872882649168321,-0.0634823744849688,-0.0454753547993287,-0.0512742255455518,-0.0462383641080422,-0.0633297726232261,-0.0956813673126813,-0.0660766061345949,-0.0379978635739357,-0.0505112162368382,-0.0651609949641387,-0.109873340454754,-0.136273462536243,-0.118419044712346,-0.137494277430185,-0.159316343659393,-0.135968258812758,-0.116587822371433,-0.0959865710361667,-0.0738593010834733,-0.0738593010834733,-0.0605829391118573,-0.0619563558675417,-0.084694033267206,-0.0524950404394935,-0.0189226308560966,-0.0262475202197468,-0.0323515946894553,-0.0619563558675417,-0.0824050053410653,-0.0686708377842211,-0.0956813673126813,-0.131390202960476,-0.119029452159316,-0.10911033114604,-0.0996490157179919,-0.0808789867236381,-0.083625820235007,-0.0718754768808181,-0.0621089577292844,-0.081489394170609,-0.0656188005493668,-0.0447123454906151,-0.0523424385777508,-0.0441019380436442,-0.0405920952235618,-0.0222798718144362,0.0381504654356782,0.0759957271478711,0.118419044712345,0.225087746070502,0.338470929345338,0.450633297726232,0.575003815046543,0.67266900656188,0.785899587974973,0.912864336944911,1.00564626888448,1.11506180375401,1.21379520830154,1.23485426522204,1.18998931786968,1.06226155959103,0.882191362734625,0.703799786357393,0.489699374332367,0.280329620021364,0.153212269189684,0.0511216236838088,-0.0395238821913628,-0.0920189226308562,-0.143750953761636,-0.156416908286281,-0.134137036471845,-0.153212269189684,-0.16816725164047,-0.164352205096902,-0.175949946589348,-0.170761483290096,-0.165573019990844,-0.168014649778727,-0.151838852434,-0.171066687013582,-0.207996337555318,-0.189989317869678,-0.180680604303373,-0.199603235159469,-0.205096902182207,-0.228444987028842,-0.226766366549672,-0.187547688081795,-0.188463299252251,-0.191057530901877,-0.172745307492752,-0.16984587211964,-0.153975278498398,-0.137494277430185,-0.138562490462384,-0.127880360140394,-0.146039981687777,-0.178696780100717,-0.15016023195483,-0.12879597131085,-0.145429574240806,-0.154280482221883,-0.184037845261712,-0.190752327178392,-0.156416908286281,-0.163589195788189,-0.17381352052495,-0.14680299099649,-0.127880360140394,-0.104684877155501,-0.082557607202808,-0.0816419960323517,-0.0703494582633909,-0.0842362276819778,-0.11811384098886,-0.0930871356630552,-0.0679078284755075,-0.0802685792766673,-0.0930871356630552,-0.134900045780559,-0.159011139935907,-0.13947810163284,-0.157027315733252,-0.178086372653746,-0.15412788036014,-0.133526629024874,-0.109415534869526,-0.0808789867236381,-0.0749275141156723,-0.0582939111857166,-0.0572256981535176,-0.0802685792766673,-0.0526476423012362,-0.0239584922936061,-0.033572409583397,-0.0393712803296201,-0.0663818098580804,-0.083625820235007,-0.0666870135815658,-0.0912559133221426,-0.123607508011598,-0.10346406226156,-0.0849992369906914,-0.0706546619868764,-0.0479169845872121,-0.0460857622462995,-0.0289943537311156,-0.0146497787273006,-0.0317411872424845,-0.012818556386388,0.0155653898977566,0.0135815656951014,0.0170914085151838,0.00396764840531043,-0.00656188005493678,0.0117503433541888,-0.00839310239584934,-0.0393712803296201,-0.0157179917594996,0.00518846329925214,0.0146497787273004,0.0337250114451395,0.0312833816572561,0.0482221883106973,0.0775217457652982,0.0688234396459636,0.0792003662444681,0.101632839920647,0.0981229971005645,0.102853654814589,0.0965969784831374,0.0849992369906912,0.0946131542804821,0.0662292079963374,0.024416297878834,0.0412025026705325,0.0553944758126048,0.0495956050663817,0.0552418739508621,0.0433389287349304,0.0573783000152601,0.0964443766213947,0.088814283534259,0.0853044407141766,0.103464062261559,0.10239584922936,0.1057530901877,0.0998016175797344,0.0837784220967495,0.085609644437662,0.052647642301236,0.004730657714024,0.0183122234091255,0.0251793071875476,-0.00198382420265538,-0.018159621547383,-0.0477643827254694,-0.0483747901724402,-0.0123607508011599,-0.0207538531970091,-0.0326567984129407,-0.0187700289943538,-0.0195330383030674,-0.0141919731420724,-0.0123607508011599,-0.0257897146345187,-0.0233480848466352,-0.0485273920341829,-0.0895772928429728,-0.0706546619868764,-0.0573783000152603,-0.0808789867236381,-0.0976651915153366,-0.134289638333588,-0.144666564932092,-0.112620173966122,-0.123607508011598,-0.140241110941554,-0.120860674500229,-0.109262933007783,-0.0940027468335115,-0.0788951625209829,-0.0808789867236381,-0.0700442545399055,-0.0831680146497788,-0.115061803754006,-0.0866778574698612,-0.0573783000152603,-0.0671448191667939,-0.079352968106211,-0.120097665191515,-0.14115672211201,-0.119639859606287,-0.139325499771097,-0.163283992064703,-0.136731268121471,-0.111704562795666,-0.0897298947047155,-0.0669922173050512,-0.0647031893789105,-0.0505112162368382,-0.0535632534716925,-0.0822524034793226,-0.0581413093239739,-0.0273157332519458,-0.0341828170303679,-0.0425759194262171,-0.0741645048069588,-0.0932397375247979,-0.0767587364565849,-0.103921867846788,-0.140546314665039,-0.123302304288112,-0.106363497634671,-0.0943079505569969,-0.0759957271478713,-0.0788951625209829,-0.0671448191667939,-0.0582939111857166,-0.0813367923088663,-0.0676026247520221,-0.0422707157027317,-0.0459331603845568,-0.0437967343201588,-0.0581413093239739,-0.0691286433694492,-0.0512742255455518,-0.0735540973599879,-0.108652525560812,-0.0907981077369145,-0.0764535327330994,-0.0743171066687015,-0.0616511521440563,-0.0677552266137648,-0.0528002441629789,-0.0254845109110332,-0.0370822524034794,-0.0274683351136885,0.000457805585228029,0.00610407446970842,0.0173966122386692,0.0180070196856401,0.0196856401648099,0.046238364108042,0.0305203723485425,-0.00228902792614081,0.0239584922936059,0.0460857622462993,0.040897298947047,0.041965511979246,0.0268579276667174,0.0415077063940179,0.082405005341065,0.0738593010834731,0.0677552266137646,0.0862200518846329,0.089882496566458,0.0982755989623072,0.0946131542804821,0.0801159774149243,0.0849992369906912,0.0555470776743475,0.0132763619716159,0.0370822524034792,0.0561574851213184,0.0376926598504501,0.0257897146345184,-0.00137341675568453,0.000610407446970742,0.0389134747443918,0.0305203723485425,0.020143445750038,0.0427285212879596,0.0544788646421485,0.0674500228902791,0.0705020601251334,0.0552418739508621,0.0546314665038912,0.0251793071875476,-0.0193804364413247,-0.000305203723485538,0.0154127880360139,-0.0079352968106212,-0.0279261406989166,-0.0691286433694492,-0.0848466351289487,-0.0598199298031437,-0.0792003662444683,-0.103006256676332,-0.086830459331604,-0.0763009308713567,-0.0622615595910271,-0.0476117808637266,-0.0488325957576684,-0.0358614375095377,-0.0462383641080422,-0.0755379215626432,-0.0453227529375859,-0.0157179917594996,-0.0267053258049749,-0.0413551045322754,-0.0848466351289487,-0.109873340454754,-0.0935449412482833,-0.117808637265375,-0.145276972379063,-0.124217915458569,-0.1057530901877,-0.0872882649168321,-0.0659240042728522,-0.0653135968258814,-0.0514268274072945,-0.0497482069281246,-0.0703494582633909,-0.0408972989470473,-0.0100717228750192,-0.0186174271326111,-0.0251793071875478,-0.0531054478864643,-0.0709598657103618,-0.0549366702273769,-0.0807263848618954,-0.116587822371433,-0.10178544178239,-0.0891194872577447,-0.0811841904471236,-0.0631771707614834,-0.0631771707614834,-0.0470013734167558,-0.0331146039981689,-0.0529528460247216,-0.0402868915000764,-0.0196856401648101,-0.0286891500076302,-0.0306729742102855,-0.0477643827254694,-0.0622615595910271,-0.0451701510758432,-0.0566152907065467,-0.0656188005493668,-0.0079352968106212,0.0614985502823133,0.136273462536243,0.235617274530749,0.32397375247978,0.441324584159927,0.581718296963223,0.687776590874408,0.80711124675721,0.928887532427895,1.02029604761178,1.12299710056463,1.20952235617275,1.25484510911033,1.25560811841904,1.14603998168778,0.962002136426064,0.793224477338623,0.604913779948115,0.403937128032962,0.235922478254235,0.0776743476270409,-0.020296047611781,-0.0515794292690372,-0.0906455058751718,-0.105905692049443,-0.10010682130322,-0.116587822371433,-0.123760109873341,-0.135815656951015,-0.160079352968106,-0.163589195788189,-0.188463299252251,-0.218678467877308,-0.189073706699222,-0.167099038608271,-0.177323363345033,-0.1822066229208,-0.212879597131085,-0.221425301388677,-0.188768502975736,-0.187089882496567,-0.180070196856402,-0.149855028231345,-0.137952083015413,-0.117808637265375,-0.102701052952846,-0.111551960933923,-0.107889516252098,-0.124523119182054,-0.152601861742713,-0.125286128490768,-0.10911033114604,-0.132305814130933,-0.150618037540058,-0.192278345795819,-0.211353578513658,-0.183580039676484,-0.185716465740882,-0.184343048985198,-0.149702426369602,-0.126812147108195,-0.0985808026857929,-0.0721806806043035,-0.0724858843277889,-0.0631771707614834,-0.0720280787425608,-0.0967495803448803,-0.065008393102396,-0.0376926598504503,-0.0506638180985809,-0.0621089577292844,-0.101632839920647,-0.128643369449107,-0.114298794445292,-0.131695406683962,-0.150007630093087,-0.126354341522967,-0.107889516252098,-0.0853044407141768,-0.0581413093239739,-0.056462688844804,-0.044254539905387,-0.0416603082557608,-0.0587517167709447,-0.0250267053258051,0.0082405005341064,0.00183122234091245,-0.000915611170456391,-0.0254845109110332,-0.0445597436288724,-0.0317411872424845,-0.0578361056004884,-0.0911033114603999,-0.0743171066687015,-0.0598199298031437,-0.0462383641080422,-0.0218220662292081,-0.0158705936212423,0.00839310239584912,0.0325041965511978,0.022279871814436,0.0431863268731877,0.072333282466046,0.0727910880512741,0.0796581718296962,0.0737066992217304,0.0749275141156721,0.10178544178239,0.0825576072028078,0.0439493361819013,0.0492904013428963,0.0503586143750953,0.0476117808637264,0.0651609949641384,0.0703494582633907,0.0978177933770791,0.138104684877155,0.139630703494583,0.152754463604456,0.166946436746528,0.154433084083626,0.156722112009766,0.154585685945368,0.150465435678315,0.168472455363955,0.150618037540058,0.11643522050969,0.129406378757821,0.135357851365787,0.126964748969937,0.134747443918816,0.125743934075996,0.141919731420723,0.185563863879139,0.187242484358309,0.190752327178391,0.205249504043949,0.197009003509843,0.198687623989013,0.19517778116893,0.182054021059057,0.185563863879139,0.156111704562796,0.110025942316496,0.115977414924462,0.113840988860064,0.0851518388524339,0.0705020601251334,0.0395238821913626,0.0341828170303677,0.064855791240653,0.0566152907065465,0.0465435678315274,0.0558522813978329,0.0488325957576681,0.0523424385777505,0.0544788646421485,0.0389134747443918,0.0352510300625666,0.00579887074622299,-0.0384556691591638,-0.0289943537311156,-0.0276209369754312,-0.0595147260796583,-0.0808789867236381,-0.1214710819472,-0.139020296047612,-0.115061803754006,-0.124370517320311,-0.133679230886617,-0.115672211200977,-0.108957729284297,-0.0895772928429728,-0.0657714024111095,-0.0666870135815658,-0.0587517167709447,-0.0671448191667939,-0.0923241263543416,-0.0694338470929346,-0.0558522813978332,-0.0775217457652984,-0.0888142835342592,-0.122844498702884,-0.144971768655578,-0.127880360140394,-0.141309323973753,-0.155959102701053,-0.135815656951015,-0.122691896841142,-0.0994964138562491,-0.0685182359224784,-0.0643979856554251,-0.0523424385777508,-0.0499008087898673,-0.0665344117198231,-0.0375400579887076,-0.0155653898977569,-0.0323515946894553,-0.038913474744392,-0.063940180070197,-0.085762246299405,-0.0773691439035557,-0.100717228750191,-0.12879597131085,-0.116740424233176,-0.10911033114604,-0.0940027468335115,-0.0656188005493668,-0.0645505875171678,-0.0538684571951779,-0.0395238821913628,-0.0473065771402412,-0.0216694643674654,-0.00274683351136895,-0.0215168625057227,-0.0257897146345187,-0.0416603082557608,-0.0643979856554251,-0.0643979856554251,-0.0927819319395698,-0.125743934075996,-0.113993590721807,-0.106821303219899,-0.099038608271021,-0.076148329009614,-0.0817945978940944,-0.0711124675721045,-0.0393712803296201,-0.0360140393712804,-0.0167862047916986,-0.00137341675568453,-0.0186174271326111,-0.0189226308560966,-0.0247215016023197,-0.04104990080879,-0.0375400579887076,-0.0599725316648864,-0.0897298947047155,-0.0720280787425608,-0.0602777353883718,-0.057530901877003,-0.0384556691591638,-0.0453227529375859,-0.0344880207538533,0.00564626888448028,0.0137341675568441,0.0294521593163435,0.0529528460247214,0.0518846329925224,0.0642453837936822,0.0697390508164198,0.0540210590569204,0.0486799938959254,0.0155653898977566,-0.0279261406989166,-0.0190752327178393,-0.0166336029299559,-0.0347932244773387,-0.0376926598504503,-0.0622615595910271,-0.0645505875171678,-0.0292995574546011,-0.0274683351136885,-0.0242636960170915,-0.00595147260796593,-0.00640927819319407,0.00732488936365012,0.0198382420265526,0.00839310239584912,0.00579887074622299,-0.0167862047916986,-0.0531054478864643,-0.0433389287349307,-0.0488325957576684,-0.0848466351289487,-0.103311460399817,-0.141004120250267,-0.159316343659393,-0.135968258812758,-0.14283534259118,-0.15016023195483,-0.135205249504044,-0.132611017854418,-0.113230581413093,-0.0895772928429728,-0.0956813673126813,-0.0953761635891959,-0.108194719975584,-0.135052647642301,-0.114451396307035,-0.104990080878987,-0.128643369449107,-0.137036471844957,-0.167251640470014,-0.190294521593164,-0.17717076148329,-0.190141919731421,-0.201281855638639,-0.181596215473829,-0.171982298184038,-0.149244620784374,-0.117656035403632,-0.117808637265375,-0.111094155348695,-0.10743171066687,-0.118571646574088,-0.0880512742255457,-0.0695864489546774,-0.0909507095986572,-0.0970547840683657,-0.117656035403632,-0.137952083015413,-0.130627193651763,-0.152601861742713,-0.17717076148329,-0.164352205096902,-0.156874713871509,-0.13947810163284,-0.109568136731268,-0.112772775827865,-0.106821303219899,-0.0917137189073708,-0.0933923393865406,-0.0601251335266291,-0.0347932244773387,-0.0483747901724402,-0.0479169845872121,-0.0611933465588281,-0.0843888295437205,-0.086830459331604,-0.117656035403632,-0.153822676636655,-0.149702426369602,-0.150923241263544,-0.146192583549519,-0.123607508011598,-0.128948573172593,-0.111857164657409,-0.0605829391118573,-0.0221272699526935,0.0482221883106973,0.129253776896078,0.192278345795819,0.289027926140699,0.39203418281703,0.486952540820998,0.602166946436746,0.692507248588433,0.773386235312071,0.893636502365329,1.00228902792614,1.10285365481459,1.20509690218221,1.23134442240195,1.20219746680909,1.13062719365176,0.973142072333282,0.791545856859454,0.604913779948115,0.402411109415535,0.242942163894399,0.111551960933923,-0.00747749122539306,-0.0790477643827256,-0.141919731420723,-0.193499160689761,-0.188463299252251,-0.190599725316649,-0.211048374790173,-0.215779032504197,-0.246299404852739,-0.256218525866016,-0.221120097665192,-0.207233328246605,-0.183427437814741,-0.144971768655578,-0.131084999236991,-0.106821303219899,-0.0888142835342592,-0.102090645505875,-0.106668701358157,-0.125896535937739,-0.152449259880971,-0.130016786204792,-0.124523119182054,-0.153670074774912,-0.170456279566611,-0.210437967343202,-0.229055394475813,-0.198840225850755,-0.192125743934076,-0.181138409888601,-0.147718602166947,-0.132305814130933,-0.1057530901877,-0.077216542041813,-0.079352968106211,-0.074011902945216,-0.0795055699679537,-0.0964443766213949,-0.0656188005493668,-0.0517320311307799,-0.0796581718296964,-0.0962917747596522,-0.132458415992675,-0.156264306424538,-0.139630703494583,-0.149092018922631,-0.156874713871509,-0.130932397375248,-0.114909201892263,-0.0895772928429728,-0.0584465130474593,-0.0601251335266291,-0.0547840683656342,-0.0534106516099497,-0.0663818098580804,-0.033572409583397,-0.00991912101327647,-0.0276209369754312,-0.0354036319243096,-0.0607355409736,-0.08042118113841,-0.0656188005493668,-0.0824050053410653,-0.103616664123302,-0.0833206165115215,-0.0700442545399055,-0.0537158553334352,-0.0282313444224021,-0.0332672058599116,-0.0265527239432322,-0.0126659545246453,-0.0187700289943538,0.0108347321837325,0.0373874561269646,0.0279261406989164,0.0326567984129405,0.0250267053258049,0.0140393712803295,0.0285365481458873,0.00976651915153354,-0.0184648252708684,-0.00137341675568453,0.00991912101327625,0.0178544178238973,0.0395238821913626,0.0352510300625666,0.0488325957576681,0.0816419960323515,0.0831680146497786,0.100412025026705,0.117198229818404,0.104532275293758,0.110941553486952,0.11475660003052,0.111857164657409,0.128490767587364,0.112162368380894,0.0842362276819776,0.105142682740729,0.11811384098886,0.118419044712345,0.13276361971616,0.121623683808942,0.133374027163131,0.17717076148329,0.184343048985197,0.195788188615901,0.21486342133374,0.209064550587517,0.218373264153823,0.224324736761788,0.215168625057226,0.221272699526934,0.197619410956814,0.159774149244621,0.173050511216237,0.176865557759805,0.157790325041965,0.151838852434,0.120402868915001,0.109568136731268,0.138409888600641,0.132305814130932,0.126812147108195,0.139630703494583,0.13444224019533,0.141919731420723,0.147108194719975,0.129864184343049,0.123912711735083,0.0943079505569967,0.0499008087898671,0.0575309018770028,0.0511216236838088,0.00778269494887826,-0.0222798718144362,-0.0711124675721045,-0.0967495803448803,-0.0770639401800703,-0.0869830611933467,-0.0946131542804823,-0.0756905234243859,-0.0701968564016482,-0.0515794292690372,-0.0289943537311156,-0.0318937891042272,-0.0253319090492905,-0.0369296505417367,-0.0660766061345949,-0.0430337250114452,-0.0286891500076302,-0.052189836716008,-0.0657714024111095,-0.102090645505875,-0.125286128490768,-0.10743171066687,-0.1214710819472,-0.138562490462384,-0.121928887532428,-0.112620173966122,-0.0906455058751718,-0.0584465130474593,-0.0515794292690372,-0.0355562337860523,-0.0303677704868,-0.0459331603845568,-0.0167862047916986,0.00350984282008229,-0.0158705936212423,-0.0239584922936061,-0.0483747901724402,-0.065008393102396,-0.0477643827254694,-0.0669922173050512,-0.0946131542804823,-0.0813367923088663,-0.0738593010834733,-0.0614985502823136,-0.036777048679994,-0.0364718449565086,-0.0231954829848925,-0.00915611170456291,-0.0209064550587518,0.00305203723485415,0.0264001220814893,0.0149549824507858,0.0155653898977566,0.00106821303219888,-0.0189226308560966,-0.014954982450786,-0.0450175492141005,-0.081489394170609,-0.0683656340607356,-0.0581413093239739,-0.0494430032046392,-0.0294521593163438,-0.039981687776591,-0.035708835647795,-0.012818556386388,-0.019227834579582,-0.00549366702273779,0.0119029452159315,0.000763009308713455,0.00625667633145113,0.004730657714024,-0.00732488936365035,-0.000915611170456391,-0.0265527239432322,-0.0611933465588281,-0.043186326873188,-0.0317411872424845,-0.034640622615596,-0.0247215016023197,-0.0396764840531056,-0.031435983518999,0.0093087135663054,0.0141919731420722,0.0250267053258049,0.0476117808637264,0.0477643827254691,0.0608881428353425,0.0694338470929344,0.0677552266137646,0.0843888295437203,0.0682130321989927,0.0381504654356782,0.0668396154433083,0.08774607050206,0.0772165420418128,0.0769113383183274,0.0581413093239736,0.0651609949641384,0.108347321837326,0.108652525560812,0.107126506943385,0.127422554555165,0.129711582481306,0.139325499771097,0.143750953761636,0.128643369449107,0.127269952693423,0.100869830611933,0.063787578208454,0.0883564779490309,0.103311460399817,0.0799633755531816,0.0662292079963374,0.0340302151686249,0.0273157332519456,0.0622615595910269,0.0547840683656339,0.0433389287349304,0.0679078284755073,0.0833206165115213,0.102548451091103,0.119487257744544,0.115367007477491,0.120555470776743,0.0985808026857927,0.0549366702273767,0.0666870135815656,0.0746223103921867,0.0459331603845566,0.023348084846635,-0.0218220662292081,-0.0466961696932704,-0.0288417518693729,-0.0483747901724402,-0.072943689913017,-0.0589043186326874,-0.0497482069281246,-0.0329620021364262,-0.00930871356630562,-0.00824050053410663,0.00167862047916973,-0.00488325957576694,-0.0343354188921106,-0.0115977414924463,0.0134289638333587,0.00259423164962601,-0.00274683351136895,-0.0308255760720282,-0.0512742255455518,-0.0387608728826493,-0.0659240042728522,-0.101480238058904,-0.0914085151838853,-0.0842362276819778,-0.0753853197009005,-0.0547840683656342,-0.0550892720891196,-0.042118113840989,-0.0323515946894553,-0.0517320311307799,-0.0347932244773387,-0.0140393712803297,-0.0257897146345187,-0.0283839462841448,-0.0444071417671297,-0.0570730962917749,-0.0427285212879598,-0.0676026247520221,-0.103158858538074,-0.0895772928429728,-0.0801159774149246,-0.0773691439035557,-0.0625667633145125,-0.0674500228902794,-0.0523424385777508,-0.0254845109110332,-0.0347932244773387,-0.0241110941553488,-0.0056462688844805,-0.0151075843125287,-0.0144971768655579,-0.023500686708378,-0.0352510300625669,-0.0245688997405769,-0.0534106516099497,-0.0964443766213949,-0.0848466351289487,-0.0775217457652984,-0.0839310239584924,-0.0701968564016482,-0.0647031893789105,-0.0196856401648101,0.0674500228902791,0.127880360140394,0.207080726384862,0.312681214710819,0.409278193193957,0.526934228597589,0.64397985655425,0.748969937433236,0.867999389592553,0.952235617274531,1.01800701968564,1.1318480085457,1.22554555165573,1.26140698916527,1.24736761788494,1.13703647184496,0.987791851060583,0.835647794903098,0.628719670379978,0.428506027773539,0.271478712040287,0.12879597131085,0.0314359835189988,-0.0328094002746835,-0.0827102090645507,-0.0959865710361667,-0.124523119182054,-0.165573019990844,-0.151686250572257,-0.150007630093087,-0.184037845261712,-0.201281855638639,-0.227529375858386,-0.221730505112162,-0.172134900045781,-0.163741797649931,-0.16252098275599,-0.135510453227529,-0.124217915458569,-0.107279108805128,-0.0892720891194874,-0.0921715244925989,-0.0824050053410653,-0.0924767282160843,-0.118571646574088,-0.0904929040134291,-0.0714176712955899,-0.0930871356630552,-0.111704562795666,-0.154280482221883,-0.174729131695407,-0.148329009613917,-0.157179917594995,-0.171219288875324,-0.146192583549519,-0.127880360140394,-0.1057530901877,-0.0792003662444683,-0.0747749122539296,-0.0578361056004884,-0.0550892720891196,-0.0749275141156723,-0.0460857622462995,-0.0222798718144362,-0.0401342896383337,-0.0518846329925226,-0.082557607202808,-0.102548451091103,-0.0865252556081185,-0.107584312528613,-0.137494277430185,-0.123760109873341,-0.113383183274836,-0.0996490157179919,-0.0746223103921869,-0.072943689913017,-0.0587517167709447,-0.0470013734167558,-0.0631771707614834,-0.0424233175644744,-0.018159621547383,-0.0271631313902031,-0.0282313444224021,-0.043186326873188,-0.0517320311307799,-0.0292995574546011,-0.0480695864489548,-0.0816419960323517,-0.0677552266137648,-0.0592095223561729,-0.0582939111857166,-0.0444071417671297,-0.0485273920341829,-0.0312833816572563,-0.000915611170456391,-0.00427285212879608,0.0128185563863878,0.0360140393712802,0.0299099649015717,0.032962002136426,0.026552723943232,0.0184648252708682,0.0357088356477948,0.0180070196856401,-0.0114451396307036,0.0120555470776742,0.0289943537311154,0.0289943537311154,0.0413551045322752,0.0340302151686249,0.0521898367160078,0.0978177933770791,0.103158858538074,0.113383183274836,0.133984434610102,0.131390202960476,0.142835342591179,0.150770639401801,0.147566000305204,0.160537158553334,0.140088509079811,0.104684877155501,0.123607508011598,0.134594842057073,0.119945063329773,0.119334655882802,0.101175034335419,0.109720738593011,0.154738287807111,0.159774149244621,0.165725621852586,0.19349916068976,0.203113077979551,0.221120097665191,0.235159468945521,0.230734014954982,0.23958492293606,0.218983671600793,0.181901419197314,0.200824050053411,0.207691133831833,0.175186937280635,0.151228444987029,0.10911033114604,0.0927819319395695,0.11811384098886,0.103769265985045,0.0860674500228902,0.0993438119945062,0.101632839920647,0.111246757210438,0.120402868915001,0.108042118113841,0.105600488325957,0.0782847550740118,0.0332672058599114,0.0466961696932701,0.0558522813978329,0.0268579276667174,0.00198382420265516,-0.0470013734167558,-0.0727910880512743,-0.0524950404394935,-0.0715702731573326,-0.096902182206623,-0.083625820235007,-0.0776743476270412,-0.0665344117198231,-0.0495956050663819,-0.0540210590569206,-0.0444071417671297,-0.0476117808637266,-0.0701968564016482,-0.0387608728826493,-0.0102243247367619,-0.0248741034640624,-0.037845261712193,-0.0723332824660462,-0.0927819319395698,-0.0756905234243859,-0.100412025026705,-0.133526629024874,-0.117656035403632,-0.10514268274073,-0.094765756142225,-0.0773691439035557,-0.0807263848618954,-0.0685182359224784,-0.0621089577292844,-0.085762246299405,-0.0682130321989929,-0.0408972989470473,-0.0454753547993287,-0.0447123454906151,-0.0621089577292844,-0.0758431252861286,-0.0599725316648864,-0.085762246299405,-0.122539294979399,-0.103311460399817,-0.0863726537463758,-0.0820998016175798,-0.0711124675721045,-0.0808789867236381,-0.0706546619868764,-0.0526476423012362,-0.0720280787425608,-0.0662292079963377,-0.0473065771402412,-0.0550892720891196,-0.0538684571951779,-0.062871967037998,-0.0724858843277889,-0.0573783000152603,-0.0837784220967497,-0.12543873035251,-0.110178544178239,-0.0994964138562491,-0.107126506943385,-0.101938043644133,-0.112620173966122,-0.0955287654509386,-0.0555470776743477,-0.061803754005799,-0.0614985502823136,-0.0424233175644744,-0.0441019380436442,-0.038913474744392,-0.0415077063940181,-0.0486799938959256,-0.0332672058599116,-0.0556996795360904,-0.0938501449717688,-0.0701968564016482,-0.0528002441629789,-0.0680604303372502,-0.0747749122539296,-0.0967495803448803,-0.0872882649168321,-0.0419655119792463,-0.0434915305966734,-0.044254539905387,-0.0129711582481307,0.00579887074622299,0.0288417518693727,0.0448649473523576,0.0477643827254691,0.0656188005493666,0.0476117808637264,0.0117503433541888,0.0402868915000762,0.0614985502823133,0.0395238821913626,0.0206012513352662,-0.018159621547383,-0.0297573630398292,-1.11022302462516e-16,-0.0155653898977569,-0.033572409583397,-0.0111399359072182,0.00274683351136873,0.0187700289943536,0.0326567984129405,0.0299099649015717,0.0415077063940179,0.0264001220814893,-0.00686708377842221,0.0235006867083777,0.0534106516099495,0.0401342896383335,0.0216694643674652,-0.0250267053258051,-0.0477643827254694,-0.0256371127727759,-0.0476117808637266,-0.0763009308713567,-0.0595147260796583,-0.0470013734167558,-0.0328094002746835,-0.0163283992064704,-0.0207538531970091,-0.0129711582481307,-0.0253319090492905,-0.0621089577292844,-0.0425759194262171,-0.0189226308560966,-0.035708835647795,-0.054326262780406,-0.095833969174424,-0.120860674500229,-0.106058293911186,-0.133526629024874,-0.169235464672669,-0.153212269189684,-0.13947810163284,-0.129253776896078,-0.111094155348695,-0.110483747901725,-0.0932397375247979,-0.0834732183732643,-0.108194719975584,-0.095833969174424,-0.0746223103921869,-0.0854570425759195,-0.0917137189073708,-0.114451396307035,-0.128338165725622,-0.108957729284297,-0.131390202960476,-0.165420418129101,-0.145276972379063,-0.130169388066535,-0.128643369449107,-0.118876850297574,-0.126506943384709,-0.112925377689608,-0.0929345338013125,-0.112772775827865,-0.107126506943385,-0.084694033267206,-0.0862200518846331,-0.0807263848618954,-0.0874408667785748,-0.094765756142225,-0.0769113383183276,-0.100412025026705,-0.139020296047612,-0.120402868915001,-0.107279108805128,-0.115061803754006,-0.111857164657409,-0.123912711735083,-0.107736914390356,-0.0695864489546774,-0.0798107736914391,-0.0860674500228904,-0.0730962917747598,-0.0788951625209829,-0.0770639401800703,-0.0776743476270412,-0.0720280787425608,-0.0315885853807418,-0.0163283992064704,-0.00396764840531066,0.0842362276819776,0.179001983824203,0.250114451396307,0.339386540515794,0.424233175644743,0.545246452006714,0.699832137952083,0.803296200213642,0.900961391728979,1.02044864947352,1.1193346558828,1.20601251335266,1.23943232107432,1.18617427132611,1.07630093087136,0.882496566458111,0.650694338470929,0.485426522203571,0.330535632534717,0.160079352968106,0.0241110941553486,-0.0975125896535939,-0.159316343659393,-0.155043491530597,-0.182664428506028,-0.209980161757974,-0.19853502212727,-0.194872577445445,-0.187547688081795,-0.178696780100717,-0.177933770792004,-0.155653898977568,-0.158705936212422,-0.1822066229208,-0.144819166793835,-0.110636349763467,-0.122844498702884,-0.142530138867694,-0.188310697390508,-0.205249504043949,-0.17320311307798,-0.184648252708683,-0.204639096596979,-0.180985808026858,-0.166030825576072,-0.156569510148024,-0.145887379826034,-0.14848161147566,-0.130627193651763,-0.129101175034336,-0.152449259880971,-0.11979246146803,-0.0808789867236381,-0.0833206165115215,-0.0940027468335115,-0.132763619716161,-0.151381046848772,-0.124980924767282,-0.143903555623379,-0.173050511216237,-0.146497787273005,-0.125743934075996,-0.120097665191515,-0.111857164657409,-0.115367007477491,-0.0970547840683657,-0.0886616816725165,-0.116587822371433,-0.103921867846788,-0.0763009308713567,-0.079352968106211,-0.0840836258202351,-0.10743171066687,-0.115824813062719,-0.0880512742255457,-0.108652525560812,-0.143445750038151,-0.116587822371433,-0.0933923393865406,-0.0920189226308562,-0.0871356630550894,-0.094765756142225,-0.0758431252861286,-0.0520372348542653,-0.0735540973599879,-0.0711124675721045,-0.0457805585228141,-0.0439493361819015,-0.043186326873188,-0.0578361056004884,-0.0657714024111095,-0.0422707157027317,-0.0642453837936824,-0.102548451091103,-0.076148329009614,-0.0552418739508623,-0.0666870135815658,-0.0701968564016482,-0.0784373569357547,-0.053258049748207,-0.0115977414924463,-0.0233480848466352,-0.0267053258049749,-0.000763009308713677,0.0082405005341064,0.0157179917594994,0.0126659545246451,0.0146497787273004,0.0437967343201586,0.027620936975431,-0.00854570425759205,0.0219746680909506,0.0444071417671294,0.0225850755379215,0.00671448191667927,-0.0115977414924463,0.0126659545246451,0.0709598657103615,0.0705020601251334,0.0625667633145123,0.0878986723638027,0.0991912101327635,0.105142682740729,0.103921867846788,0.103921867846788,0.128032962002136,0.111551960933923,0.0747749122539294,0.109720738593011,0.145582176102548,0.135968258812757,0.122691896841141,0.0946131542804821,0.101480238058904,0.143293148176408,0.123607508011598,0.0946131542804821,0.11475660003052,0.129253776896078,0.133068823439646,0.129253776896078,0.121165878223714,0.133221425301389,0.107279108805127,0.0567678925682892,0.0787425606592399,0.111094155348695,0.10010682130322,0.0796581718296962,0.0355562337860521,0.022279871814436,0.0509690218220661,0.0213642606439797,-0.0216694643674654,-0.0100717228750192,-0.0021364260643981,-0.00808789867236391,-0.0169388066534413,-0.0318937891042272,-0.0238058904318634,-0.039981687776591,-0.0866778574698612,-0.0727910880512743,-0.0425759194262171,-0.0486799938959256,-0.0666870135815658,-0.111704562795666,-0.127575156416908,-0.0965969784831376,-0.119945063329773,-0.158705936212422,-0.137036471844957,-0.117045627956661,-0.115367007477491,-0.112009766519152,-0.113077979551351,-0.0906455058751718,-0.0875934686403175,-0.130016786204792,-0.128948573172593,-0.100412025026705,-0.0952235617274532,-0.0962917747596522,-0.119182054021059,-0.120402868915001,-0.083625820235007,-0.105905692049443,-0.148939417060888,-0.126354341522967,-0.103769265985045,-0.106363497634671,-0.105600488325958,-0.108499923699069,-0.0834732183732643,-0.0645505875171678,-0.0970547840683657,-0.100412025026705,-0.0705020601251336,-0.0601251335266291,-0.0592095223561729,-0.0788951625209829,-0.0839310239584924,-0.0534106516099497,-0.0763009308713567,-0.120402868915001,-0.0940027468335115,-0.0692812452311919,-0.0820998016175798,-0.0926293300778271,-0.106668701358157,-0.0856096444376622,-0.052189836716008,-0.0743171066687015,-0.0853044407141768,-0.0621089577292844,-0.055394475812605,-0.0552418739508623,-0.0679078284755075,-0.0717228750190753,-0.0444071417671297,-0.0643979856554251,-0.104379673432016,-0.0714176712955899,-0.0430337250114452,-0.0613459484205708,-0.0784373569357547,-0.0993438119945064,-0.077216542041813,-0.0236532885701207,-0.0289943537311156,-0.0381504654356784,-0.00808789867236391,0.00991912101327625,0.0198382420265526,0.0199908438882953,0.0248741034640621,0.0578361056004882,0.0454753547993284,0.00671448191667927,0.0401342896383335,0.0756905234243857,0.0651609949641384,0.04837479017244,0.0167862047916983,0.0239584922936059,0.0677552266137646,0.0465435678315274,0.0141919731420722,0.0335724095833968,0.0492904013428963,0.0549366702273767,0.0547840683656339,0.0543262627804058,0.0769113383183274,0.0589043186326872,0.0149549824507858,0.0474591790019837,0.0923241263543414,0.0906455058751716,0.0753853197009002,0.0370822524034792,0.0331146039981687,0.0694338470929344,0.0399816877765908,-0.00534106516099507,0.00732488936365012,0.0170914085151838,0.0105295284602471,0.00320463909659687,-0.0010682130321991,0.0219746680909506,0.0129711582481305,-0.0347932244773387,-0.0236532885701207,0.00717228750190741,0.00167862047916973,-0.0201434457500383,-0.0692812452311919,-0.0845414314054632,-0.052189836716008,-0.0805737830001527,-0.125133526629025,-0.10346406226156,-0.083625820235007,-0.0874408667785748,-0.0904929040134291,-0.0917137189073708,-0.0642453837936824,-0.0593621242179156,-0.102548451091103,-0.100412025026705,-0.0682130321989929,-0.0613459484205708,-0.0683656340607356,-0.10010682130322,-0.102243247367618,-0.059667327941401,-0.0807263848618954,-0.124065313596826,-0.095833969174424,-0.0691286433694492,-0.0753853197009005,-0.0810315885853808,-0.0848466351289487,-0.0552418739508623,-0.035708835647795,-0.0741645048069588,-0.0839310239584924,-0.0578361056004884,-0.051121623683809,-0.0560048832595759,-0.0799633755531819,-0.0796581718296964,-0.0386082710209066,-0.057530901877003,-0.102243247367618,-0.0747749122539296,-0.0497482069281246,-0.0659240042728522,-0.081489394170609,-0.0964443766213949,-0.0734014954982452,-0.043186326873188,-0.0732488936365025,-0.0895772928429728,-0.0676026247520221,-0.0616511521440563,-0.0643979856554251,-0.0788951625209829,-0.0726384861895316,-0.0219746680909508,-0.0140393712803297,-0.0151075843125287,0.0769113383183274,0.179612391271173,0.242636960170914,0.313749427743018,0.392186784678773,0.521287959713108,0.675873645658477,0.762704104990081,0.846787730810316,0.974973294674195,1.08927208911949,1.18251182664428,1.23058141309324,1.21928887532428,1.16023195482985,0.992369906912864,0.767434762704105,0.614527697237906,0.475965206775523,0.306882343964596,0.15412788036014,0.0164810010682129,-0.0468487715550131,-0.0430337250114452,-0.085762246299405,-0.129864184343049,-0.118876850297574,-0.117198229818404,-0.133068823439646,-0.156416908286281,-0.173355714939722,-0.156569510148024,-0.172134900045781,-0.208148939417061,-0.165267816267359,-0.112925377689608,-0.113993590721807,-0.134747443918816,-0.179917594994659,-0.185411262017397,-0.139935907218068,-0.152449259880971,-0.178086372653746,-0.147566000305204,-0.125591332214253,-0.125743934075996,-0.132305814130933,-0.140088509079811,-0.11979246146803,-0.127575156416908,-0.170303677704868,-0.150618037540058,-0.110331146039982,-0.108042118113841,-0.122691896841142,-0.164504806958645,-0.169388066534412,-0.121928887532428,-0.134747443918816,-0.165267816267359,-0.129406378757821,-0.0972073859301085,-0.0940027468335115,-0.0962917747596522,-0.0988860064092783,-0.0711124675721045,-0.0651609949641387,-0.108194719975584,-0.106821303219899,-0.0781321532122693,-0.0784373569357547,-0.0924767282160843,-0.129711582481306,-0.134747443918816,-0.0907981077369145,-0.105905692049443,-0.144056157485121,-0.116282618647948,-0.0935449412482833,-0.102548451091103,-0.109873340454754,-0.11643522050969,-0.0891194872577447,-0.0701968564016482,-0.106058293911186,-0.111094155348695,-0.0817945978940944,-0.0735540973599879,-0.0744697085304442,-0.0926293300778271,-0.0877460705020602,-0.0418129101175035,-0.0556996795360904,-0.0955287654509386,-0.0630245688997407,-0.0343354188921106,-0.0477643827254694,-0.0616511521440563,-0.0763009308713567,-0.0523424385777508,-0.0201434457500383,-0.0466961696932704,-0.0552418739508623,-0.0225850755379217,-0.00701968564016492,-0.00350984282008252,-0.0163283992064704,-0.0157179917594996,0.0204486494735235,0.00549366702273757,-0.0291469555928583,0.0163283992064702,0.0593621242179153,0.0499008087898671,0.0332672058599114,0.00747749122539284,0.0227376773996642,0.0663818098580801,0.0511216236838088,0.0390660766061345,0.071265069433847,0.0911033114603997,0.0998016175797344,0.0959865710361665,0.0976651915153364,0.12879597131085,0.112772775827865,0.0726384861895314,0.109262933007783,0.14680299099649,0.133221425301389,0.111857164657409,0.0761483290096138,0.0827102090645505,0.130169388066534,0.114146192583549,0.0874408667785746,0.110941553486952,0.126812147108195,0.129558980619563,0.122997100564627,0.115519609339234,0.133221425301389,0.110483747901724,0.0610407446970852,0.084541431405463,0.11246757210438,0.0912559133221424,0.0602777353883716,0.00732488936365012,-0.00885090798107748,0.0230428811231496,-0.0021364260643981,-0.0402868915000764,