0.0973599877918509,0.0543262627804058,0.0219746680909506,0.0157179917594994,0.0372348542652219,0.0743171066687012,0.103769265985045,0.111551960933923,0.0953761635891957,0.0598199298031435,0.0253319090492903,0.0120555470776742,0.0239584922936059,0.0547840683656339,0.0875934686403173,0.104532275293758,0.0998016175797344,0.0721806806043033,0.0311307797955134,0.000457805585228029,-0.00305203723485438,0.0235006867083777,0.0665344117198229,0.100717228750191,0.111551960933923,0.0970547840683655,0.0596673279414008,0.0192278345795818,0.00122081489394159,0.0148023805890431,0.051579429269037,0.089882496566458,0.108194719975584,0.0996490157179916,0.0674500228902791,0.0253319090492903,-0.00381504654356794,-0.00595147260796593,0.0192278345795818,0.0598199298031435,0.0917137189073706,0.100869830611933,0.0853044407141766,0.0486799938959254,0.0108347321837325,-0.00534106516099507,0.00640927819319385,0.0405920952235616,0.0798107736914389,0.105142682740729,0.109568136731268,0.089882496566458,0.053715855333435,0.0259423164962611,0.0268579276667174,0.0590569204944299,0.109568136731268,0.153670074774912,0.174729131695407,0.169235464672669,0.139325499771097,0.101632839920647,0.0793529681062108,0.0833206165115213,0.111551960933923,0.14680299099649,0.167251640470014,0.164962612543873,0.139935907218068,0.10010682130322,0.0674500228902791,0.0590569204944299,0.0790477643827254,0.118876850297574,0.155348695254082,0.169998473981382,0.15916374179765,0.124980924767282,0.0843888295437203,0.060582939111857,0.0645505875171676,0.0940027468335113,0.13215321226919,0.155043491530597,0.152907065466199,0.124370517320311,0.0782847550740118,0.0379978635739355,0.023348084846635,0.0366244468182511,0.0679078284755073,0.0953761635891957,0.101938043644132,0.0837784220967495,0.0436441324584159,-0.00228902792614081,-0.0306729742102855,-0.0292995574546011,-0.000610407446970964,0.0369296505417365,0.0607355409735998,0.0610407446970852,0.0369296505417365,-0.00396764840531066,-0.0392186784678774,-0.0494430032046392,-0.0315885853807418,0.00671448191667927,0.0437967343201586,0.0601251335266289,0.0499008087898671,0.0144971768655576,-0.0299099649015719,-0.0573783000152603,-0.0547840683656342,-0.0233480848466352,0.020143445750038,0.0508164199603234,0.0553944758126048,0.0323515946894551,-0.00946131542804833,-0.0457805585228141,-0.0549366702273769,-0.0329620021364262,0.00991912101327625,0.0506638180985807,0.0689760415077063,0.0579887074622309,0.0204486494735235,-0.0264001220814895,-0.0567678925682894,-0.0572256981535176,-0.0279261406989166,0.0149549824507858,0.0454753547993284,0.0503586143750953,0.0300625667633144,-0.00701968564016492,-0.0393712803296201,-0.0460857622462995,-0.022432473676179,0.0215168625057225,0.0631771707614832,0.0828628109262932,0.0752327178391575,0.0427285212879596,-1.11022302462516e-16,-0.0282313444224021,-0.0289943537311156,-0.00473065771402422,0.0292995574546008,0.0508164199603234,0.0500534106516098,0.0300625667633144,0.000915611170456168,-0.0148023805890433,0.00427285212879586,0.0647031893789103,0.160231954829849,0.271783915763772,0.379826033877613,0.477186021669464,0.560811841904471,0.637570578361056,0.72607965817183,0.838699832137952,0.976041507706394,1.12376010987334,1.25621852586602,1.35251030062567,1.39035556233786,1.34594842057073,1.22813978330536,1.07080726384862,0.901724401037692,0.737830001526018,0.580955287654509,0.424996184953456,0.272394323210743,0.128338165725622,0.00503586143750943,-0.0767587364565849,-0.109262933007783,-0.100717228750191,-0.0711124675721045,-0.0485273920341829,-0.0483747901724402,-0.0715702731573326,-0.111246757210438,-0.145734777964291,-0.150770639401801,-0.122081489394171,-0.0714176712955899,-0.0230428811231498,0.000152601861742602,-0.00808789867236391,-0.0448649473523578,-0.0940027468335115,-0.126354341522967,-0.123607508011598,-0.0878986723638029,-0.0381504654356784,-0.0033572409583398,0.00106821303219888,-0.0225850755379217,-0.0662292079963377,-0.107279108805128,-0.120555470776744,-0.0994964138562491,-0.0549366702273769,-0.0105295284602473,0.0102243247367617,0.00320463909659687,-0.0267053258049749,-0.0679078284755075,-0.0976651915153366,-0.100259423164963,-0.0753853197009005,-0.0352510300625669,-0.00366244468182523,0.00289943537311144,-0.0169388066534413,-0.0592095223561729,-0.103769265985045,-0.126201739661224,-0.116893026094918,-0.0799633755531819,-0.0347932244773387,-0.00595147260796593,-0.00289943537311166,-0.0254845109110332,-0.0645505875171678,-0.096902182206623,-0.104074469708531,-0.0827102090645507,-0.0419655119792463,-0.00503586143750965,0.00991912101327625,-0.0010682130321991,-0.0381504654356784,-0.0822524034793226,-0.105447886464215,-0.0953761635891959,-0.056462688844804,-0.00869830611933477,0.0227376773996642,0.0274683351136883,0.004730657714024,-0.0349458263390814,-0.0660766061345949,-0.0685182359224784,-0.0390660766061347,0.0103769265985044,0.0535632534716922,0.071265069433847,0.0628719670379977,0.032962002136426,-0.00274683351136895,-0.0207538531970091,-0.00976651915153376,0.0270105295284601,0.0718754768808178,0.101022432473676,0.104227071570273,0.0816419960323515,0.0436441324584159,0.0141919731420722,0.0115977414924461,0.0383030672974209,0.0848466351289485,0.128948573172593,0.150618037540058,0.14512437051732,0.115519609339234,0.0788951625209826,0.0599725316648862,0.0708072638486188,0.110178544178239,0.16145276972379,0.199908438882954,0.21318480085457,0.20021364260644,0.167251640470014,0.137036471844956,0.129864184343049,0.150618037540058,0.192430947657561,0.233938654051579,0.255455516557302,0.251793071875477,0.223561727453075,0.185106058293911,0.160537158553334,0.164657408820387,0.197772012818556,0.244620784373569,0.279871814436136,0.291011750343354,0.27727758278651,0.244162978788341,0.212116587822371,0.201434457500381,0.218983671600793,0.258202350068671,0.296658019227834,0.313444224019533,0.302151686250572,0.264459026400122,0.214558217610255,0.178086372653746,0.169693270257897,0.189836716007935,0.22386693117656,0.24690981229971,0.244315580650084,0.214100412025027,0.161910575309019,0.111094155348695,0.0843888295437203,0.0874408667785746,0.113230581413093,0.141309323973752,0.150618037540058,0.13444224019533,0.093087135663055,0.0393712803296199,-0.000763009308713677,-0.0122081489394172,0.00534106516099485,0.0379978635739355,0.0604303372501143,0.0582939111857163,0.0302151686250571,-0.0186174271326111,-0.0671448191667939,-0.0901877002899436,-0.0788951625209829,-0.0419655119792463,-0.0033572409583398,0.0138867694185868,0.00381504654356772,-0.0303677704868,-0.0743171066687015,-0.103158858538074,-0.102853654814589,-0.0746223103921869,-0.0328094002746835,-0.00320463909659709,0.000915611170456168,-0.0186174271326111,-0.057530901877003,-0.0976651915153366,-0.114909201892263,-0.101022432473676,-0.0622615595910271,-0.0180070196856403,0.00915611170456268,0.0108347321837325,-0.0141919731420724,-0.056462688844804,-0.0917137189073708,-0.101632839920647,-0.0807263848618954,-0.0393712803296201,-0.00518846329925236,0.00350984282008229,-0.0120555470776745,-0.0499008087898673,-0.0929345338013125,-0.11475660003052,-0.104379673432016,-0.0665344117198231,-0.0206012513352664,0.0103769265985044,0.0158705936212421,-0.00656188005493678,-0.0486799938959256,-0.0854570425759195,-0.0961391728979095,-0.0747749122539296,-0.0317411872424845,0.004730657714024,0.0149549824507858,0.000457805585228029,-0.0341828170303679,-0.0737066992217306,-0.0932397375247979,-0.0808789867236381,-0.0402868915000764,0.00839310239584912,0.040897298947047,0.0465435678315274,0.0250267053258049,-0.013886769418587,-0.0468487715550131,-0.0544788646421487,-0.0332672058599116,0.00656188005493656,0.0387608728826491,0.0442545399053867,0.0270105295284601,-0.00549366702273779,-0.0387608728826493,-0.0515794292690372,-0.035708835647795,0.00396764840531043,0.0499008087898671,0.0804211811384098,0.0859148481611474,0.0647031893789103,0.0230428811231496,-0.016023195482985,-0.0320463909659699,-0.0180070196856403,0.0180070196856401,0.0485273920341827,0.0534106516099495,0.0363192430947656,0.00198382420265516,-0.0383030672974211,-0.0621089577292844,-0.0572256981535176,-0.0254845109110332,0.0175492141004119,0.049443003204639,0.0582939111857163,0.040897298947047,0.00305203723485415,-0.0331146039981689,-0.0471539752784985,-0.0311307797955136,0.00976651915153354,0.0480695864489546,0.0593621242179153,0.045170151075843,0.00961391728979082,-0.034640622615596,-0.0611933465588281,-0.0550892720891196,-0.0173966122386694,0.0343354188921104,0.0727910880512741,0.0820998016175796,0.0619563558675415,0.0202960476117808,-0.0199908438882955,-0.0358614375095377,-0.0178544178238976,0.0280787425606591,0.0720280787425605,0.0880512742255454,0.0787425606592399,0.0476117808637264,0.00488325957576671,-0.0238058904318634,-0.0231954829848925,0.00808789867236369,0.0556996795360902,0.0892720891194871,0.0923241263543414,0.0708072638486188,0.0331146039981687,-0.0033572409583398,-0.018159621547383,-0.00152601861742724,0.0427285212879596,0.08774607050206,0.108499923699069,0.108042118113841,0.0901877002899434,0.061651152144056,0.0437967343201586,0.0517320311307797,0.0878986723638027,0.141309323973752,0.181291011750343,0.188005493667023,0.167862047916984,0.13047459179002,0.0936975431100258,0.0804211811384098,0.0984282008240499,0.14115672211201,0.1822066229208,0.198992827712498,0.194872577445445,0.171982298184038,0.134900045780558,0.106058293911186,0.102548451091103,0.128948573172593,0.175797344727606,0.209369754311002,0.20753853197009,0.182969632229513,0.145734777964291,0.108194719975584,0.0911033114603997,0.104837479017244,0.146192583549519,0.189226308560964,0.206622920799634,0.19853502212727,0.168014649778727,0.1214710819472,0.0831680146497786,0.0718754768808178,0.0915611170456278,0.132000610407447,0.15748512131848,0.144666564932092,0.109568136731268,0.063787578208454,0.0173966122386692,-0.0079352968106212,-0.00122081489394182,0.0358614375095375,0.0799633755531816,0.105142682740729,0.109262933007783,0.0924767282160841,0.0582939111857163,0.0283839462841446,0.0231954829848923,0.0491377994811536,0.0959865710361665,0.126506943384709,0.117808637265375,0.0894246909812298,0.0520372348542651,0.0137341675568441,-0.00457805585228151,0.00717228750190741,0.0482221883106973,0.0981229971005645,0.130779795513505,0.138562490462384,0.120097665191515,0.0804211811384098,0.0436441324584159,0.0320463909659697,0.0532580497482068,0.0994964138562489,0.132611017854418,0.126506943384709,0.100259423164962,0.065924004272852,0.0292995574546008,0.0102243247367617,0.0215168625057225,0.0642453837936822,0.119029452159316,0.154890889668854,0.158553334350679,0.133679230886617,0.0912559133221424,0.0541736609186631,0.041965511979246,0.0613459484205706,0.105905692049443,0.139020296047612,0.134747443918816,0.111704562795666,0.0799633755531816,0.0445597436288722,0.0248741034640621,0.0328094002746832,0.0677552266137646,0.115977414924462,0.148023805890432,0.149397222646116,0.131237601098733,0.107279108805127,0.0981229971005645,0.125896535937738,0.199145429574241,0.311460399816878,0.426216999847398,0.516252098275599,0.600640927819319,0.687013581565695,0.772165420418129,0.869983213795208,0.991301693880665,1.13749427743018,1.29436899130169,1.4272852128796,1.50221272699527,1.49702426369602,1.40103769265985,1.23668548756295,1.04700137341676,0.86616816725164,0.712803296200213,0.566152907065466,0.407904776438272,0.265374637570578,0.150770639401801,0.0611933465588279,0.00747749122539284,-0.00579887074622321,0.0155653898977566,0.0555470776743475,0.0763009308713565,0.0587517167709445,0.0241110941553486,-0.012818556386388,-0.0392186784678774,-0.0381504654356784,-0.0056462688844805,0.0506638180985807,0.092018922630856,0.0904929040134288,0.0698916526781626,0.0424233175644742,0.00763009308713555,-0.0144971768655579,-0.00885090798107748,0.0270105295284601,0.0798107736914389,0.108652525560812,0.0926293300778268,0.0570730962917746,0.0183122234091255,-0.0158705936212423,-0.0286891500076302,-0.0109873340454755,0.0361666412330229,0.0769113383183274,0.0808789867236379,0.0674500228902791,0.0454753547993284,0.0132763619716159,-0.00808789867236391,-0.00122081489394182,0.0375400579887073,0.0965969784831374,0.131695406683961,0.115977414924462,0.0773691439035555,0.0357088356477948,0.000152601861742602,-0.0119029452159317,0.00778269494887826,0.0575309018770028,0.101480238058904,0.108805127422554,0.0975125896535937,0.0746223103921867,0.0383030672974209,0.0102243247367617,0.00869830611933455,0.0396764840531053,0.094155348695254,0.128032962002136,0.113840988860064,0.0790477643827254,0.039829085914848,0.00274683351136873,-0.0109873340454755,0.0103769265985044,0.0642453837936822,0.114909201892263,0.128948573172593,0.120250267053258,0.0996490157179916,0.066992217305051,0.0405920952235616,0.0389134747443918,0.0694338470929344,0.125286128490767,0.16145276972379,0.148939417060888,0.117808637265375,0.0836258202350068,0.0492904013428963,0.0332672058599114,0.04837479017244,0.0962917747596519,0.14680299099649,0.162673584617732,0.151991454295742,0.129711582481306,0.0972073859301082,0.0711124675721043,0.069128643369449,0.0998016175797344,0.158858538074164,0.20189226308561,0.198077216542042,0.176102548451091,0.149397222646116,0.118266442850603,0.102853654814589,0.117808637265375,0.167099038608271,0.224477338623531,0.250572256981535,0.245383793682283,0.224782542347017,0.192736151381047,0.164962612543873,0.161300167862048,0.18953151228445,0.245383793682283,0.287349305661529,0.286433694491073,0.270410499008088,0.249351442087593,0.220051884632992,0.200824050053411,0.208148939417061,0.249046238364108,0.302914695559286,0.329314817640775,0.321074317106669,0.294826796886922,0.256218525866015,0.218983671600793,0.203113077979551,0.221272699526934,0.271631313902029,0.311307797955135,0.306882343964596,0.28292385167099,0.249351442087593,0.205249504043949,0.172592705631009,0.168625057225698,0.20021364260644,0.248130627193652,0.270257897146345,0.253319090492904,0.213947810163284,0.159774149244621,0.106058293911186,0.075537921562643,0.0801159774149243,0.118571646574088,0.150007630093087,0.141461925835495,0.115824813062719,0.0811841904471233,0.0349458263390812,-0.00152601861742724,-0.0108347321837328,0.0143445750038149,0.0602777353883716,0.0853044407141766,0.0706546619868761,0.0338776133068822,-0.0146497787273006,-0.0624141614527698,-0.0871356630550894,-0.0775217457652984,-0.035708835647795,-0.00122081489394182,-0.00473065771402422,-0.0231954829848925,-0.0494430032046392,-0.0878986723638029,-0.118571646574088,-0.122844498702884,-0.0912559133221426,-0.0338776133068825,0.00564626888448028,0.000610407446970742,-0.0302151686250573,-0.0741645048069588,-0.119487257744545,-0.14451396307035,-0.134900045780559,-0.0897298947047155,-0.0466961696932704,-0.0390660766061347,-0.0488325957576684,-0.0709598657103618,-0.108805127422555,-0.140088509079811,-0.14451396307035,-0.112925377689608,-0.0550892720891196,-0.0132763619716162,-0.0151075843125287,-0.0427285212879598,-0.0848466351289487,-0.131390202960476,-0.159468945521135,-0.152754463604456,-0.108805127422555,-0.0647031893789105,-0.0541736609186633,-0.0613459484205708,-0.0820998016175798,-0.120860674500229,-0.155959102701053,-0.165573019990844,-0.138867694185869,-0.0828628109262934,-0.0422707157027317,-0.0462383641080422,-0.0741645048069588,-0.113688386998321,-0.156874713871509,-0.182359224782542,-0.174576529833664,-0.130321989928277,-0.0837784220967497,-0.0680604303372502,-0.0698916526781628,-0.0860674500228904,-0.121623683808943,-0.154738287807111,-0.165420418129101,-0.14451396307035,-0.0967495803448803,-0.0614985502823136,-0.0669922173050512,-0.0924767282160843,-0.128338165725622,-0.16984587211964,-0.19456737372196,-0.187700289943537,-0.146497787273005,-0.100564626888448,-0.0811841904471236,-0.079352968106211,-0.0911033114603999,-0.121776285670685,-0.154738287807111,-0.169235464672669,-0.153059667327941,-0.109415534869526,-0.0790477643827256,-0.0900350984282009,-0.118724248435831,-0.154280482221883,-0.194109568136731,-0.219136273462536,-0.215931634365939,-0.180680604303373,-0.138104684877156,-0.119029452159316,-0.11979246146803,-0.135663055089272,-0.170303677704868,-0.206775522661377,-0.224172134900046,-0.210285365481459,-0.168472455363956,-0.136731268121471,-0.141767129558981,-0.162215779032504,-0.191057530901877,-0.2272241721349,-0.250724858843278,-0.246299404852739,-0.207385930108347,-0.154433084083626,-0.122234091255913,-0.11643522050969,-0.132611017854418,-0.169540668396155,-0.207691133831833,-0.222798718144361,-0.201587059362124,-0.147718602166947,-0.102090645505875,-0.0955287654509386,-0.108652525560812,-0.131695406683962,-0.161757973447276,-0.179764993132916,-0.171371890737067,-0.133068823439646,-0.0833206165115215,-0.0549366702273769,-0.0560048832595759,-0.0792003662444683,-0.121318480085457,-0.165573019990844,-0.188463299252251,-0.177323363345033,-0.133374027163131,-0.0953761635891959,-0.0941553486952542,-0.11246757210438,-0.142377537005952,-0.180985808026858,-0.207233328246605,-0.205707309629178,-0.171219288875324,-0.118724248435831,-0.0842362276819778,-0.0837784220967497,-0.107889516252098,-0.148939417060888,-0.192278345795819,-0.217305051121624,-0.211658782237143,-0.176102548451091,-0.146650389134748,-0.152754463604456,-0.175797344727606,-0.208606745002289,-0.250877460705021,-0.282618647947505,-0.287501907523272,-0.258812757515642,-0.207385930108347,-0.169693270257897,-0.168625057225698,-0.193956966274989,-0.236532885701206,-0.28231344422402,-0.308866168167252,-0.303067297421029,-0.263848618953151,-0.226918968411415,-0.22325652372959,-0.236990691286434,-0.262169998473981,-0.298794445292233,-0.326110178544178,-0.325957576682436,-0.291469555928582,-0.233786052189837,-0.193193956966275,-0.193651762551503,-0.220662292079963,-0.263085609644438,-0.308103158858538,-0.331909049290401,-0.320463909659698,-0.274988554860369,-0.231649626125439,-0.221120097665192,-0.228750190752327,-0.249656645811079,-0.285365481458874,-0.314359835189989,-0.316801464977873,-0.283992064703189,-0.225698153517473,-0.182054021059057,-0.179001983824203,-0.20357088356478,-0.244620784373569,-0.289333129864184,-0.314359835189989,-0.305508927208912,-0.262475202197467,-0.217762856706852,-0.202655272394323,-0.208148939417061,-0.231344422401953,-0.271936517625515,-0.307340149549825,-0.317869678010072,-0.294674195025179,-0.245994201129254,-0.210437967343202,-0.213337402716313,-0.239890126659545,-0.28231344422402,-0.329772623226003,-0.353425911796124,-0.332519456737372,-0.264306424538379,-0.178696780100717,-0.106363497634671,-0.0412025026705327,0.0181596215473828,0.0711124675721043,0.137646879291927,0.237143293148176,0.374942774301846,0.537616358919579,0.685182359224782,0.790325041965512,0.865710361666412,0.919121013276362,0.949030978177934,0.949030978177934,0.907370669922173,0.828780711124676,0.711735083168014,0.554249961849534,0.377231802227987,0.193193956966275,0.0115977414924461,-0.138715092324126,-0.235464672669007,-0.272241721349001,-0.261559591027011,-0.249046238364108,-0.26827407294369,-0.309171371890737,-0.365176255150313,-0.424385777506486,-0.459179001983824,-0.453227529375858,-0.40607355409736,-0.345643216847246,-0.305508927208912,-0.290248741034641,-0.303830306729742,-0.346101022432474,-0.390202960476118,-0.408057378300015,-0.385472302762094,-0.330077826949489,-0.286433694491073,-0.285212879597131,-0.309934381199451,-0.349000457805585,-0.392797192125744,-0.417823897451549,-0.4094307950557,-0.365328857012056,-0.307950556996795,-0.268884480390661,-0.256371127727758,-0.271478712040287,-0.309629177475965,-0.346406226155959,-0.358919578818862,-0.336944910727911,-0.286433694491073,-0.246757210437967,-0.245688997405768,-0.266442850602777,-0.301693880665344,-0.34533801312376,-0.371890737066992,-0.364260643979857,-0.320769113383183,-0.26262780405921,-0.223561727453075,-0.21654204181291,-0.239127117350832,-0.285365481458874,-0.331756447428659,-0.35266290248741,-0.335113688386998,-0.285823287044102,-0.245841599267511,-0.244468182511827,-0.264611628261865,-0.29696322295132,-0.336792308866168,-0.36273462536243,-0.358461773233634,-0.318785289180528,-0.258812757515642,-0.21425301388677,-0.204486494735236,-0.225850755379216,-0.268121471081947,-0.310544788646422,-0.330230428811232,-0.316343659392645,-0.272241721349001,-0.233633450328094,-0.229665801922784,-0.247062414161453,-0.278650999542195,-0.3183274835953,-0.34198077216542,-0.335418892110484,-0.297421028536548,-0.240195330383031,-0.19517778116893,-0.182817030367771,-0.199450633297726,-0.236532885701206,-0.27392034182817,-0.288264916831985,-0.269189684114146,-0.221425301388677,-0.179307187547688,-0.168777659087441,-0.177933770792004,-0.201587059362124,-0.235006867083779,-0.256065924004273,-0.248741034640623,-0.207996337555318,-0.146650389134748,-0.0998016175797346,-0.0889668853960019,-0.107889516252098,-0.14680299099649,-0.187700289943537,-0.206622920799634,-0.190904929040134,-0.142682740729437,-0.0953761635891959,-0.0790477643827256,-0.0856096444376622,-0.110025942316496,-0.147566000305204,-0.17488173355715,-0.172592705631009,-0.13444224019533,-0.0727910880512743,-0.0248741034640624,-0.014954982450786,-0.0341828170303679,-0.0706546619868764,-0.106821303219899,-0.121165878223714,-0.104837479017244,-0.0608881428353427,-0.0178544178238976,-0.00320463909659709,-0.0108347321837328,-0.0381504654356784,-0.0807263848618954,-0.113535785136579,-0.115977414924462,-0.0839310239584924,-0.0315885853807418,0.00564626888448028,0.00534106516099485,-0.0257897146345187,-0.0787425606592402,-0.134289638333588,-0.166030825576072,-0.161147566000305,-0.121928887532428,-0.0788951625209829,-0.0633297726232261,-0.074011902945216,-0.108499923699069,-0.161452769723791,-0.207233328246605,-0.223409125591332,-0.202502670532581,-0.156569510148024,-0.124370517320311,-0.130016786204792,-0.162063177170762,-0.210743171066687,-0.261559591027011,-0.290706546619869,-0.285823287044102,-0.24858843277888,-0.205096902182207,-0.182969632229513,-0.183732641538227,-0.207996337555318,-0.251030062566763,-0.287501907523272,-0.29696322295132,-0.273157332519457,-0.225850755379216,-0.190904929040134,-0.192125743934076,-0.217762856706852,-0.257897146345186,-0.299252250877461,-0.318785289180528,-0.304593316038456,-0.258660155653899,-0.205554707767435,-0.172745307492752,-0.166183427437815,-0.187242484358309,-0.22890279261407,-0.265069433847093,-0.273615138104685,-0.246452006714482,-0.194414771860217,-0.156569510148024,-0.157790325041966,-0.183580039676484,-0.221883106973905,-0.260796581718297,-0.279108805127423,-0.265985045017549,-0.222493514420876,-0.169540668396155,-0.1361208606745,-0.132000610407447,-0.158248130627194,-0.203723485426522,-0.240958339691744,-0.249351442087594,-0.224629940485274,-0.177933770792004,-0.14512437051732,-0.148329009613917,-0.172592705631009,-0.207691133831833,-0.243705173203113,-0.258660155653899,-0.240347932244773,-0.190599725316649,-0.129406378757821,-0.084694033267206,-0.0691286433694492,-0.0860674500228904,-0.127422554555166,-0.168625057225698,-0.187242484358309,-0.173050511216237,-0.131390202960476,-0.0982755989623074,-0.100717228750191,-0.125286128490768,-0.161757973447276,-0.200366244468183,-0.218525866015565,-0.204333892873493,-0.159011139935907,-0.101175034335419,-0.0607355409736,-0.0534106516099497,-0.0775217457652984,-0.122691896841142,-0.164657408820388,-0.180070196856402,-0.160537158553334,-0.114298794445292,-0.0790477643827256,-0.0822524034793226,-0.108042118113841,-0.145887379826034,-0.186326873187853,-0.206928124523119,-0.195025179307188,-0.151533648710514,-0.0936975431100261,-0.0534106516099497,-0.0474591790019839,-0.0698916526781628,-0.109415534869526,-0.146039981687777,-0.158248130627194,-0.136273462536243,-0.0859148481611477,-0.0430337250114452,-0.034640622615596,-0.0462383641080422,-0.0705020601251336,-0.102853654814589,-0.120860674500229,-0.108499923699069,-0.0643979856554251,-0.0056462688844805,0.0346406226155958,0.0378452617121928,0.0103769265985044,-0.0352510300625669,-0.0781321532122693,-0.0964443766213949,-0.0811841904471236,-0.0369296505417367,0.00289943537311144,0.00991912101327625,-0.00686708377842221,-0.039981687776591,-0.0807263848618954,-0.104074469708531,-0.0953761635891959,-0.0552418739508623,0.000152601861742602,0.0369296505417365,0.0354036319243094,0.00534106516099485,-0.0419655119792463,-0.0889668853960019,-0.110941553486953,-0.0964443766213949,-0.0518846329925226,-0.0125133526629026,-0.00579887074622321,-0.0206012513352664,-0.0517320311307799,-0.0961391728979095,-0.130932397375248,-0.138409888600641,-0.112009766519152,-0.0637875782084543,-0.0311307797955136,-0.036777048679994,-0.0703494582633909,-0.119182054021059,-0.165267816267359,-0.186632076911338,-0.174271326110179,-0.131848008545704,-0.0882038760872884,-0.0714176712955899,-0.078284755074012,-0.105600488325958,-0.147108194719976,-0.178696780100717,-0.181291011750343,-0.150465435678315,-0.0996490157179919,-0.0642453837936824,-0.065008393102396,-0.0909507095986572,-0.133068823439646,-0.175644742865863,-0.194262169998474,-0.177933770792004,-0.131237601098734,-0.0817945978940944,-0.058599114909202,-0.0619563558675417,-0.0882038760872884,-0.130016786204792,-0.163589195788189,-0.16984587211964,-0.142987944452922,-0.0952235617274532,-0.0630245688997407,-0.0686708377842211,-0.0985808026857929,-0.141919731420723,-0.18388524339997,-0.201281855638639,-0.183274835952999,-0.133679230886617,-0.0790477643827256,-0.0479169845872121,-0.0434915305966734,-0.0656188005493668,-0.10743171066687,-0.14283534259118,-0.150465435678315,-0.125133526629025,-0.0795055699679537,-0.0486799938959256,-0.0552418739508623,-0.0877460705020602,-0.134900045780559,-0.181138409888601,-0.202350068670838,-0.185106058293911,-0.127727758278651,-0.0488325957576684,0.0270105295284601,0.0886616816725163,0.131695406683961,0.165420418129101,0.215779032504196,0.303067297421028,0.432015870593621,0.589195788188616,0.736456584770334,0.848161147566,0.931176560354036,0.992522508774607,1.04303372501144,1.09262933007783,1.12482832290554,1.11399359072181,1.04410193804364,0.913016938806653,0.732336334503281,0.517930718754769,0.293300778269495,0.0962917747596519,-0.0434915305966734,-0.11643522050969,-0.133526629024874,-0.133679230886617,-0.15016023195483,-0.186479475049596,-0.241110941553487,-0.30032046390966,-0.335876697695712,-0.33236685487563,-0.291622157790325,-0.232870441019381,-0.183427437814741,-0.159926751106364,-0.169693270257897,-0.206165115214406,-0.243094765756142,-0.257439340759957,-0.240347932244773,-0.197619410956814,-0.159621547382878,-0.151381046848772,-0.168930260949184,-0.207385930108347,-0.253776896078132,-0.281092629330078,-0.273767739966428,-0.231954829848924,-0.17381352052495,-0.127575156416908,-0.109415534869526,-0.125133526629025,-0.168014649778727,-0.211658782237143,-0.231039218678468,-0.216084236227682,-0.172440103769266,-0.132000610407447,-0.122081489394171,-0.140088509079811,-0.179917594994659,-0.227681977720128,-0.257286738898215,-0.254082099801618,-0.217152449259881,-0.162673584617732,-0.118266442850603,-0.102090645505875,-0.119945063329773,-0.164504806958645,-0.208148939417061,-0.225240347932245,-0.207385930108347,-0.163741797649931,-0.123454906149855,-0.110025942316496,-0.122081489394171,-0.156569510148024,-0.201739661223867,-0.230886616816725,-0.227071570273157,-0.188921104837479,-0.132763619716161,-0.0891194872577447,-0.0759957271478713,-0.0946131542804823,-0.135663055089272,-0.175034335418892,-0.188463299252251,-0.167556844193499,-0.118724248435831,-0.0721806806043035,-0.0549366702273769,-0.0669922173050512,-0.102548451091103,-0.147260796581718,-0.174576529833664,-0.168319853502213,-0.127422554555166,-0.0683656340607356,-0.0233480848466352,-0.0122081489394172,-0.0329620021364262,-0.0758431252861286,-0.116587822371433,-0.130321989928277,-0.109873340454754,-0.0622615595910271,-0.0126659545246453,0.0131237601098732,0.0119029452159315,-0.013886769418587,-0.0518846329925226,-0.0764535327330994,-0.0714176712955899,-0.0344880207538533,0.0196856401648099,0.0611933465588279,0.0720280787425605,0.0549366702273767,0.0184648252708682,-0.0175492141004121,-0.0299099649015719,-0.00961391728979104,0.0383030672974209,0.0911033114603997,0.124065313596826,0.130169388066534,0.107889516252098,0.0672974210285364,0.0354036319243094,0.032962002136426,0.0653135968258812,0.119029452159316,0.161147566000305,0.170761483290096,0.151228444987029,0.111094155348695,0.0708072638486188,0.0546314665038912,0.0727910880512741,0.120250267053258,0.17381352052495,0.206775522661376,0.207843735693575,0.17549214100412,0.123302304288112,0.0804211811384098,0.0677552266137646,0.0885090798107736,0.128490767587364,0.156111704562796,0.151228444987029,0.117350831680146,0.0636349763467113,0.0102243247367617,-0.0184648252708684,-0.0137341675568443,0.0195330383030672,0.0602777353883716,0.0839310239584922,0.0805737830001525,0.0476117808637264,-0.00488325957576694,-0.0502060125133528,-0.0683656340607356,-0.0552418739508623,-0.0216694643674654,0.00137341675568431,-0.00579887074622321,-0.0375400579887076,-0.0856096444376622,-0.134289638333588,-0.161147566000305,-0.154738287807111,-0.116587822371433,-0.0676026247520221,-0.034640622615596,-0.0292995574546011,-0.0547840683656342,-0.101175034335419,-0.140546314665039,-0.151991454295743,-0.130016786204792,-0.0842362276819778,-0.0474591790019839,-0.0434915305966734,-0.0662292079963377,-0.108652525560812,-0.154890889668854,-0.179307187547688,-0.168930260949184,-0.126201739661224,-0.0712650694338472,-0.0309781779337709,-0.0189226308560966,-0.0405920952235618,-0.0871356630550894,-0.127880360140394,-0.137341675568442,-0.110331146039982,-0.0592095223561729,-0.0184648252708684,-0.0126659545246453,-0.0352510300625669,-0.0763009308713567,-0.120097665191515,-0.142377537005952,-0.130932397375248,-0.0871356630550894,-0.0321989928277126,0.00427285212879586,0.00900350984281997,-0.0177018159621548,-0.0645505875171678,-0.10514268274073,-0.118266442850603,-0.0993438119945064,-0.0570730962917749,-0.0216694643674654,-0.0167862047916986,-0.037845261712193,-0.0775217457652984,-0.121623683808943,-0.146497787273005,-0.139020296047612,-0.100412025026705,-0.0486799938959256,-0.00976651915153376,0.00137341675568431,-0.019227834579582,-0.0640927819319397,-0.105447886464215,-0.118876850297574,-0.0982755989623074,-0.0526476423012362,-0.0131237601098735,-0.00289943537311166,-0.0178544178238976,-0.0544788646421487,-0.101175034335419,-0.13047459179002,-0.126201739661224,-0.0880512742255457,-0.0331146039981689,0.00900350984281997,0.0184648252708682,-0.00701968564016492,-0.0567678925682894,-0.102548451091103,-0.119182054021059,-0.0991912101327637,-0.0518846329925226,-0.0079352968106212,0.00518846329925214,-0.0123607508011599,-0.054326262780406,-0.103616664123302,-0.133068823439646,-0.127575156416908,-0.0888142835342592,-0.0358614375095377,0.000915611170456168,0.00656188005493656,-0.0184648252708684,-0.0657714024111095,-0.110331146039982,-0.127575156416908,-0.110331146039982,-0.0672974210285367,-0.0253319090492905,-0.00885090798107748,-0.0209064550587518,-0.0584465130474593,-0.108194719975584,-0.142682740729437,-0.143598351899893,-0.110331146039982,-0.059667327941401,-0.0216694643674654,-0.0123607508011599,-0.0308255760720282,-0.0706546619868764,-0.109568136731268,-0.121318480085457,-0.0973599877918512,-0.0448649473523578,0.011139935907218,0.0457805585228139,0.0503586143750953,0.0241110941553486,-0.0207538531970091,-0.0563100869830613,-0.0625667633145125,-0.0360140393712804,0.00946131542804811,0.0444071417671294,0.0492904013428963,0.0250267053258049,-0.020296047611781,-0.0647031893789105,-0.0839310239584924,-0.0715702731573326,-0.0332672058599116,0.011139935907218,0.0383030672974209,0.0367770486799938,0.00412025026705315,-0.0470013734167558,-0.0875934686403175,-0.0956813673126813,-0.0683656340607356,-0.0212116587822373,0.0137341675568441,0.0180070196856401,-0.00808789867236391,-0.0590569204944301,-0.112162368380894,-0.138257286738898,-0.127422554555166,-0.0862200518846331,-0.0392186784678774,-0.0144971768655579,-0.0221272699526935,-0.0614985502823136,-0.120708072638486,-0.171371890737067,-0.190447123454906,-0.172440103769266,-0.131390202960476,-0.0978177933770793,-0.0920189226308562,-0.116130016786205,-0.164504806958645,-0.212726995269342,-0.233023042881123,-0.218831069739051,-0.177018159621547,-0.128032962002137,-0.097970395238822,-0.0984282008240502,-0.13047459179002,-0.180985808026858,-0.221272699526934,-0.229971005646269,-0.203723485426522,-0.156111704562796,-0.115061803754006,-0.100412025026705,-0.11475660003052,-0.155653898977568,-0.202044864947352,-0.224019533038303,-0.211811384098886,-0.171066687013582,-0.122081489394171,-0.0906455058751718,-0.0894246909812301,-0.120860674500229,-0.17381352052495,-0.217762856706852,-0.227681977720128,-0.199755837021212,-0.147566000305204,-0.101175034335419,-0.0842362276819778,-0.100412025026705,-0.144666564932092,-0.193804364413246,-0.218525866015565,-0.208606745002289,-0.168777659087441,-0.119639859606287,-0.0880512742255457,-0.0860674500228904,-0.114909201892263,-0.163741797649931,-0.203418281703037,-0.211048374790173,-0.187242484358309,-0.144056157485121,-0.1057530901877,-0.0923241263543416,-0.108194719975584,-0.149855028231345,-0.196551197924615,-0.217915458568595,-0.197161605371586,-0.134137036471845,-0.0463909659697849,0.0410499008087898,0.115824813062719,0.174423927971921,0.224172134900046,0.294063787578208,0.405310544788646,0.550892720891195,0.712803296200213,0.866625972836868,0.991759499465893,1.08179459789409,1.13551045322753,1.15916374179765,1.15367007477491,1.10651609949641,1.01602319548298,0.886922020448649,0.720128185563864,0.524339996947963,0.312223409125591,0.102548451091103,-0.0665344117198231,-0.165115214405616,-0.197161605371586,-0.18449565084694,-0.160079352968106,-0.154890889668854,-0.179459789409431,-0.230428811231497,-0.286891500076301,-0.320311307797955,-0.315122844498703,-0.272241721349001,-0.211048374790173,-0.160689760415077,-0.140546314665039,-0.157790325041966,-0.206012513352663,-0.250114451396307,-0.258812757515642,-0.233328246604609,-0.185869067602625,-0.137494277430185,-0.11246757210438,-0.121013276361972,-0.163131390202961,-0.22157790325042,-0.265374637570578,-0.273462536242942,-0.2429421638944,-0.190752327178392,-0.146192583549519,-0.129101175034336,-0.146497787273005,-0.192430947657562,-0.23393865405158,-0.240805737830002,-0.214405615748512,-0.165878223714329,-0.116893026094918,-0.0923241263543416,-0.101327636197162,-0.143293148176408,-0.202044864947352,-0.24690981229971,-0.256981535174729,-0.228597588890585,-0.176865557759805,-0.13215321226919,-0.115672211200977,-0.13444224019533,-0.181443613612086,-0.222798718144361,-0.227681977720128,-0.200366244468183,-0.15412788036014,-0.107584312528613,-0.0833206165115215,-0.0906455058751718,-0.131237601098734,-0.18953151228445,-0.234091255913322,-0.241721349000458,-0.208301541278804,-0.15016023195483,-0.0982755989623074,-0.0738593010834733,-0.0831680146497788,-0.120708072638486,-0.155501297115825,-0.15748512131848,-0.127880360140394,-0.0778269494887839,-0.0254845109110332,0.00534106516099485,0.00457805585228129,-0.0292995574546011,-0.0822524034793226,-0.12314970242637,-0.129558980619564,-0.0975125896535939,-0.0416603082557608,0.00763009308713555,0.0294521593163435,0.0183122234091255,-0.0198382420265528,-0.0556996795360904,-0.0592095223561729,-0.0296047611780865,0.0219746680909506,0.0767587364565847,0.112162368380894,0.117350831680146,0.0891194872577444,0.0412025026705325,0.00549366702273757,0.00442545399053857,0.0407446970853043,0.0976651915153364,0.146650389134747,0.168625057225698,0.159621547382878,0.123912711735083,0.0882038760872881,0.0819471997558369,0.108042118113841,0.157637723180223,0.211353578513658,0.245688997405768,0.25087746070502,0.224782542347017,0.17884938196246,0.142835342591179,0.139630703494583,0.17152449259881,0.224172134900046,0.270715702731573,0.290859148481611,0.278498397680452,0.238211506180375,0.195482984892416,0.179154585685945,0.197009003509843,0.241416145276972,0.29192736151381,0.321532122691897,0.319090492904013,0.285060277735388,0.231802227987181,0.188768502975736,0.178238974515489,0.200976651915153,0.242942163894399,0.278193193956966,0.287196703799786,0.263848618953151,0.210590569204944,0.150312833816572,0.112925377689608,0.108805127422554,0.132611017854418,0.165267816267358,0.181291011750343,0.168014649778727,0.123607508011598,0.0584465130474591,0.004730657714024,-0.0115977414924463,0.00900350984281997,0.050511216236838,0.0857622462994047,0.0933923393865404,0.0683656340607354,0.0152601861742712,-0.0444071417671297,-0.0824050053410653,-0.0853044407141768,-0.0555470776743477,-0.0114451396307036,0.0202960476117808,0.0247215016023194,-0.00152601861742724,-0.0489851976194111,-0.0875934686403175,-0.0924767282160843,-0.0647031893789105,-0.0178544178238976,0.024416297878834,0.0418129101175033,0.0280787425606591,-0.013886769418587,-0.0651609949641387,-0.0967495803448803,-0.0927819319395698,-0.0558522813978332,-0.00625667633145135,0.0280787425606591,0.0332672058599114,0.00763009308713555,-0.0390660766061347,-0.0770639401800703,-0.0813367923088663,-0.0531054478864643,-0.00549366702273779,0.0387608728826491,0.0587517167709445,0.0479169845872119,0.00808789867236369,-0.0433389287349307,-0.0773691439035557,-0.0764535327330994,-0.0405920952235618,0.0114451396307034,0.0508164199603234,0.0611933465588279,0.039829085914848,-0.00610407446970864,-0.0459331603845568,-0.052189836716008,-0.0264001220814895,0.0193804364413245,0.064855791240653,0.0851518388524339,0.0718754768808178,0.0282313444224018,-0.0265527239432322,-0.063940180070197,-0.0663818098580804,-0.0331146039981689,0.0177018159621546,0.0572256981535174,0.0692812452311917,0.0509690218220661,0.00869830611933455,-0.0283839462841448,-0.0337250114451397,-0.00686708377842221,0.0399816877765908,0.0859148481611474,0.108347321837326,0.0987334045475354,0.0579887074622309,0.00350984282008229,-0.0344880207538533,-0.0373874561269649,-0.00412025026705337,0.0477643827254691,0.0903403021516861,0.105600488325957,0.0891194872577444,0.0465435678315274,0.00488325957576671,-0.00701968564016492,0.0148023805890431,0.0573783000152601,0.0958339691744238,0.108957729284297,0.0912559133221424,0.04837479017244,-0.00152601861742724,-0.0323515946894553,-0.0297573630398292,0.00412025026705315,0.0514268274072943,0.0854570425759193,0.0904929040134288,0.0657714024111093,0.0207538531970089,-0.0193804364413247,-0.031435983518999,-0.0111399359072182,0.0320463909659697,0.0769113383183274,0.0994964138562489,0.0912559133221424,0.0540210590569204,0.0024416297878833,-0.0352510300625669,-0.0398290859148483,-0.00961391728979104,0.0392186784678772,0.0798107736914389,0.0940027468335113,0.0769113383183274,0.0323515946894551,-0.0143445750038152,-0.033572409583397,-0.0167862047916986,0.02868915000763,0.0802685792766671,0.111246757210438,0.112314970242637,0.0837784220967495,0.0376926598504501,0.000305203723485315,-0.00656188005493678,0.023348084846635,0.0781321532122691,0.128643369449107,0.153822676636655,0.148023805890432,0.114146192583549,0.0756905234243857,0.0618037540057988,0.0805737830001525,0.126201739661224,0.178544178238974,0.211048374790172,0.212116587822371,0.180680604303372,0.128185563863879,0.0820998016175796,0.0660766061345947,0.0860674500228902,0.129864184343049,0.169998473981382,0.185563863879139,0.171066687013581,0.129253776896078,0.0807263848618952,0.0546314665038912,0.0650083931023957,0.107279108805127,0.158400732488936,0.190904929040134,0.194109568136731,0.166336029299557,0.116893026094918,0.073401495498245,0.0584465130474591,0.0769113383183274,0.117503433541889,0.153212269189684,0.162673584617732,0.143293148176408,0.0991912101327635,0.0480695864489546,0.0164810010682129,0.0178544178238973,0.0497482069281244,0.0932397375247977,0.121623683808942,0.120860674500229,0.088814283534259,0.0363192430947656,-0.00915611170456291,-0.0253319090492905,-0.00610407446970864,0.0373874561269646,0.0778269494887836,0.0917137189073706,0.0761483290096138,0.0355562337860521,-0.0115977414924463,-0.0390660766061347,-0.0334198077216543,0.00396764840531043,0.0549366702273767,0.0924767282160841,0.102090645505875,0.0805737830001525,0.0360140393712802,-0.0044254539905388,-0.0173966122386694,0.00259423164962601,0.0465435678315274,0.0878986723638027,0.103769265985045,0.090950709598657,0.052647642301236,0.00518846329925214,-0.023500686708378,-0.0186174271326111,0.0164810010682129,0.0631771707614832,0.0947657561422248,0.0985808026857927,0.0752327178391575,0.0338776133068822,-0.00137341675568453,-0.0103769265985046,0.011139935907218,0.0555470776743475,0.0987334045475354,0.116740424233176,0.103464062261559,0.0647031893789103,0.0193804364413245,-0.00656188005493678,-0.000152601861742824,0.0355562337860521,0.0837784220967495,0.120555470776743,0.131084999236991,0.109873340454753,0.0624141614527696,0.0160231954829848,-0.00381504654356794,0.00839310239584912,0.046238364108042,0.0869830611933464,0.107279108805127,0.102243247367618,0.0764535327330992,0.0476117808637264,0.0456279566610712,0.0900350984282007,0.183885243399969,0.30993438119945,0.438425148786815,0.550740119029452,0.64230123607508,0.716923546467267,0.794597894094308,0.896078132153212,1.02563711277278,1.17503433541889,1.3193956966275,1.42575919426217,1.46497787273005,1.41126201739661,1.2701052952846,1.08286281092629,0.891194872577445,0.719517778116893,0.572409583396917,0.433847092934534,0.293758583854723,0.158248130627194,0.0375400579887073,-0.0508164199603236,-0.0926293300778271,-0.0883564779490311,-0.0512742255455518,-0.00778269494887849,0.0184648252708682,0.0196856401648099,-0.00625667633145135,-0.0468487715550131,-0.0727910880512743,-0.0656188005493668,-0.0270105295284604,0.0247215016023194,0.0579887074622309,0.0546314665038912,0.0219746680909506,-0.0282313444224021,-0.0744697085304442,-0.0912559133221426,-0.0705020601251336,-0.0207538531970091,0.032962002136426,0.0651609949641384,0.0660766061345947,0.0349458263390812,-0.0131237601098735,-0.0477643827254694,-0.0488325957576684,-0.0157179917594996,0.0366244468182511,0.073401495498245,0.0729436899130168,0.0439493361819013,-0.00228902792614081,-0.0476117808637266,-0.0671448191667939,-0.0506638180985809,-0.00488325957576694,0.0471539752784983,0.0799633755531816,0.0830154127880359,0.0549366702273767,0.00732488936365012,-0.0308255760720282,-0.0386082710209066,-0.0122081489394172,0.0346406226155958,0.0694338470929344,0.0715702731573324,0.0489851976194108,0.00961391728979082,-0.0309781779337709,-0.0486799938959256,-0.031435983518999,0.0161757973447275,0.0724858843277887,0.110636349763467,0.11811384098886,0.0936975431100258,0.0491377994811536,0.0119029452159315,0.00427285212879586,0.0315885853807415,0.0822524034793223,0.1214710819472,0.125591332214253,0.10407446970853,0.0671448191667937,0.0296047611780863,0.0154127880360139,0.0347932244773385,0.083473218373264,0.14115672211201,0.181443613612086,0.192278345795819,0.171371890737067,0.128185563863879,0.0903403021516861,0.0819471997558369,0.108347321837326,0.157942926903708,0.196703799786357,0.201739661223867,0.183122234091256,0.149855028231344,0.113840988860064,0.0985808026857927,0.117350831680146,0.169082862810926,0.233633450328094,0.279719212574393,0.292537768960781,0.274225545551656,0.235769876392492,0.202197466809095,0.19517778116893,0.220051884632992,0.268426674805432,0.309171371890737,0.317717076148329,0.303067297421028,0.272699526934228,0.235617274530749,0.215626430642454,0.229360598199298,0.278650999542194,0.34365939264459,0.389287349305661,0.398443461010224,0.375553181748817,0.332061651152144,0.292690370822524,0.281550434915306,0.305661529070655,0.356172745307493,0.399969479627651,0.410499008087899,0.395849229360598,0.362429421638944,0.319548298489241,0.291774759652068,0.29528460247215,0.33068823439646,0.381504654356783,0.414314054631466,0.411262017396612,0.379520830154128,0.329314817640775,0.279261406989165,0.252250877460705,0.258812757515642,0.294368991301694,0.327483595299863,0.330230428811231,0.305203723485426,0.2575919426217,0.198687623989013,0.156111704562796,0.147108194719975,0.17213490004578,0.214405615748512,0.239890126659545,0.228750190752327,0.189378910422707,0.13276361971616,0.0779795513505264,0.0480695864489546,0.0529528460247214,0.0878986723638027,0.123454906149855,0.132611017854418,0.117808637265375,0.0811841904471233,0.0292995574546008,-0.0115977414924463,-0.0212116587822373,0.00518846329925214,0.0541736609186631,0.0886616816725163,0.0853044407141766,0.0552418739508621,0.0105295284602471,-0.0332672058599116,-0.0540210590569206,-0.0404394933618191,0.00320463909659687,0.0499008087898671,0.0714176712955897,0.065924004272852,0.0358614375095375,-0.0100717228750192,-0.0463909659697849,-0.0540210590569206,-0.0283839462841448,0.0192278345795818,0.0540210590569204,0.0529528460247214,0.0260949183580039,-0.0167862047916986,-0.0610407446970854,-0.0819471997558371,-0.0672974210285367,-0.02136426064398,0.030825576072028,0.0618037540057988,0.0631771707614832,0.0338776133068822,-0.0155653898977569,-0.0578361056004884,-0.0709598657103618,-0.0488325957576684,-0.00244162978788352,0.0332672058599114,0.0349458263390812,0.0112925377689607,-0.0303677704868,-0.0766061345948422,-0.102243247367618,-0.0926293300778271,-0.0489851976194111,0.00625667633145113,0.0456279566610712,0.0553944758126048,0.0309781779337707,-0.0172440103769267,-0.0592095223561729,-0.0711124675721045,-0.0479169845872121,-0.000763009308713677,0.0354036319243094,0.0369296505417365,0.0128185563863878,-0.0285365481458875,-0.072943689913017,-0.0950709598657105,-0.0834732183732643,-0.0402868915000764,0.0155653898977566,0.0575309018770028,0.0698916526781626,0.0460857622462993,-0.00396764840531066,-0.0503586143750955,-0.0676026247520221,-0.0489851976194111,-0.00595147260796593,0.0270105295284601,0.0260949183580039,0.000610407446970742,-0.0412025026705327,-0.086830459331604,-0.110941553486953,-0.0988860064092783,-0.052189836716008,0.00763009308713555,0.0518846329925224,0.0654661986876239,0.0437967343201586,-0.0044254539905388,-0.0517320311307799,-0.0720280787425608,-0.0552418739508623,-0.0100717228750192,0.0274683351136883,0.0302151686250571,0.00671448191667927,-0.0343354188921106,-0.0801159774149246,-0.106058293911186,-0.0987334045475356,-0.0582939111857166,-0.0033572409583398,0.0378452617121928,0.0486799938959254,0.024416297878834,-0.0248741034640624,-0.0709598657103618,-0.0889668853960019,-0.0718754768808181,-0.0288417518693729,0.00778269494887826,0.0141919731420722,-0.0033572409583398,-0.0402868915000764,-0.0862200518846331,-0.114451396307035,-0.108499923699069,-0.0694338470929346,-0.0161757973447277,0.0224324736761787,0.0317411872424842,0.00976651915153354,-0.0360140393712804,-0.0811841904471236,-0.0999542194414773,-0.0816419960323517,-0.0331146039981689,0.0138867694185868,0.0317411872424842,0.0215168625057225,-0.0100717228750192,-0.0491377994811538,-0.0703494582633909,-0.059667327941401,-0.017091408515184,0.0392186784678772,0.0792003662444681,0.0862200518846329,0.0610407446970852,0.0135815656951014,-0.0321989928277126,-0.0528002441629789,-0.0393712803296201,0.00274683351136873,0.0456279566610712,0.0622615595910269,0.0509690218220661,0.0151075843125285,-0.031435983518999,-0.0605829391118573,-0.0556996795360904,-0.0166336029299559,0.039829085914848,0.0811841904471233,0.0869830611933464,0.0592095223561726,0.00717228750190741,-0.0456279566610714,-0.0720280787425608,-0.0613459484205708,-0.0206012513352664,0.020143445750038,0.0350984282008239,0.0230428811231496,-0.0126659545246453,-0.0602777353883718,-0.094765756142225,-0.0999542194414773,-0.0732488936365025,-0.0297573630398292,-0.00183122234091267,-0.00656188005493678,-0.0376926598504503,-0.086830459331604,-0.135357851365787,-0.158095528765451,-0.144666564932092,-0.10178544178239,-0.0566152907065467,-0.035708835647795,-0.0425759194262171,-0.0747749122539296,-0.121318480085457,-0.156111704562796,-0.16084236227682,-0.13215321226919,-0.0840836258202351,-0.0495956050663819,-0.0489851976194111,-0.0763009308713567,-0.121013276361972,-0.163589195788189,-0.180833206165115,-0.164352205096902,-0.11979246146803,-0.0708072638486191,-0.0445597436288724,-0.0499008087898673,-0.0856096444376622,-0.139630703494583,-0.182511826644285,-0.18953151228445,-0.158553334350679,-0.1057530901877,-0.0651609949641387,-0.0607355409736,-0.0869830611933467,-0.129406378757821,-0.167099038608271,-0.17549214100412,-0.147260796581718,-0.0929345338013125,-0.0386082710209066,-0.0122081489394172,-0.023500686708378,-0.0674500228902794,-0.124065313596826,-0.162063177170762,-0.162368380894247,-0.125743934075996,-0.0709598657103618,-0.0332672058599116,-0.0343354188921106,-0.0692812452311919,-0.125591332214253,-0.180985808026858,-0.207385930108347,-0.194414771860217,-0.150007630093087,-0.0982755989623074,-0.0660766061345949,-0.0625667633145125,-0.0834732183732643,-0.110025942316496,-0.110636349763467,-0.0630245688997407,0.0358614375095375,0.171829696322295,0.311307797955135,0.428506027773539,0.522050969021822,0.595299862658324,0.663512894857317,0.752632382115062,0.874256065924004,1.02151686250572,1.16770944605524,1.27086830459332,1.29162215779032,1.2083015412788,1.03479322447734,0.81947199755837,0.610102243247368,0.434152296658019,0.296505417366092,0.176865557759805,0.0582939111857163,-0.0544788646421487,-0.157027315733252,-0.238516709903861,-0.281092629330078,-0.280787425606592,-0.246452006714482,-0.199755837021212,-0.168472455363956,-0.165725621852587,-0.191515336487105,-0.231954829848924,-0.260186174271326,-0.256523729589501,-0.220357088356478,-0.166030825576072,-0.12482832290554,-0.118571646574088,-0.142224935144209,-0.187242484358309,-0.236075080115977,-0.262933007782695,-0.255608118419045,-0.217915458568595,-0.169388066534412,-0.135663055089272,-0.129711582481306,-0.15351747291317,-0.198382420265527,-0.236838089424691,-0.244620784373569,-0.216999847398138,-0.166793834884786,-0.125591332214253,-0.117350831680147,-0.139630703494583,-0.183274835952999,-0.230886616816725,-0.257286738898215,-0.249961849534564,-0.211506180375401,-0.16084236227682,-0.125896535937739,-0.121623683808943,-0.14848161147566,-0.19517778116893,-0.235159468945521,-0.245536395544026,-0.221272699526934,-0.17381352052495,-0.132000610407447,-0.118571646574088,-0.133221425301389,-0.170608881428354,-0.21425301388677,-0.238364108042118,-0.229360598199298,-0.189226308560965,-0.137189073706699,-0.100717228750191,-0.0936975431100261,-0.116893026094918,-0.160689760415077,-0.198840225850755,-0.207385930108347,-0.180222798718144,-0.129101175034336,-0.0839310239584924,-0.0679078284755075,-0.08042118113841,-0.115519609339234,-0.158248130627194,-0.182969632229513,-0.175034335418892,-0.136273462536243,-0.0845414314054632,-0.0482221883106975,-0.0424233175644744,-0.0647031893789105,-0.104532275293759,-0.13947810163284,-0.148176407752175,-0.124675721043797,-0.0769113383183276,-0.0292995574546011,-0.0056462688844805,-0.0108347321837328,-0.0416603082557608,-0.0817945978940944,-0.104990080878987,-0.0955287654509386,-0.0541736609186633,0.00213642606439787,0.0436441324584159,0.0534106516099495,0.0346406226155958,-0.00305203723485438,-0.0379978635739357,-0.0470013734167558,-0.0222798718144362,0.0283839462841446,0.0820998016175796,0.114603998168778,0.116893026094918,0.0903403021516861,0.0502060125133525,0.0239584922936059,0.0285365481458873,0.0647031893789103,0.117503433541889,0.157027315733252,0.165267816267358,0.144361361208607,0.102853654814589,0.0614985502823133,0.0460857622462993,0.0666870135815656,0.117503433541889,0.174881733557149,0.211811384098886,0.218068060430337,0.193804364413246,0.152296658019228,0.120708072638486,0.116587822371433,0.142530138867694,0.185869067602625,0.216389439951167,0.214100412025027,0.182664428506028,0.130779795513505,0.0776743476270409,0.0486799938959254,0.0544788646421485,0.0895772928429726,0.131390202960476,0.152754463604456,0.14176712955898,0.0979703952388218,0.0346406226155958,-0.018159621547383,-0.0392186784678774,-0.0250267053258051,0.0102243247367617,0.0355562337860521,0.0300625667633144,-0.00549366702273779,-0.0640927819319397,-0.124217915458569,-0.158095528765451,-0.153670074774912,-0.116587822371433,-0.0698916526781628,-0.0412025026705327,-0.0441019380436442,-0.0788951625209829,-0.132458415992675,-0.176865557759805,-0.189989317869678,-0.167862047916985,-0.123454906149855,-0.0883564779490311,-0.0848466351289487,-0.109873340454754,-0.155653898977568,-0.204333892873493,-0.230123607508012,-0.220051884632993,-0.177933770792004,-0.124980924767282,-0.0886616816725165,-0.0820998016175798,-0.108652525560812,-0.158858538074165,-0.202197466809095,-0.213947810163284,-0.188768502975736,-0.138867694185869,-0.0972073859301085,-0.0878986723638029,-0.107584312528613,-0.150312833816573,-0.199755837021212,-0.228139783305356,-0.220509690218221,-0.177018159621547,-0.11811384098886,-0.075080115977415,-0.0637875782084543,-0.085762246299405,-0.131084999236991,-0.171829696322295,-0.184343048985198,-0.162673584617732,-0.114909201892263,-0.0717228750190753,-0.0587517167709447,-0.0730962917747598,-0.108957729284297,-0.152449259880971,-0.17717076148329,-0.16984587211964,-0.132458415992675,-0.0817945978940944,-0.0436441324584161,-0.0329620021364262,-0.0538684571951779,-0.0991912101327637,-0.143445750038151,-0.161300167862048,-0.142987944452922,-0.0964443766213949,-0.0537158553334352,-0.0402868915000764,-0.0534106516099497,-0.0883564779490311,-0.133068823439646,-0.16084236227682,-0.155196093392339,-0.114909201892263,-0.0579887074622311,-0.0164810010682131,-0.00686708377842221,-0.0270105295284604,-0.0666870135815658,-0.102090645505875,-0.111399359072181,-0.0886616816725165,-0.0407446970853046,0.00305203723485415,0.0170914085151838,0.00534106516099485,-0.0274683351136885,-0.0712650694338472,-0.101022432473676,-0.100564626888448,-0.0679078284755075,-0.0183122234091257,0.0163283992064702,0.0186174271326109,-0.00732488936365035,-0.0537158553334352,-0.0991912101327637,-0.118571646574088,-0.101632839920647,-0.0544788646421487,-0.0079352968106212,0.00976651915153354,0.00152601861742702,-0.0286891500076302,-0.0717228750190753,-0.101632839920647,-0.100259423164963,-0.0640927819319397,-0.00824050053410663,0.0309781779337707,0.032962002136426,0.00595147260796571,-0.0393712803296201,-0.0842362276819778,-0.10346406226156,-0.0856096444376622,-0.0347932244773387,0.0173966122386692,0.040897298947047,0.0354036319243094,0.00564626888448028,-0.0375400579887076,-0.0672974210285367,-0.0653135968258814,-0.0296047611780865,0.0248741034640621,0.062719365176255,0.0614985502823133,0.0314359835189988,-0.0151075843125287,-0.0592095223561729,-0.076148329009614,-0.0561574851213186,-0.00503586143750965,0.0476117808637264,0.0735540973599877,0.0708072638486188,0.0418129101175033,-0.00350984282008252,-0.0379978635739357,-0.0418129101175035,-0.0112925377689609,0.0399816877765908,0.0767587364565847,0.0763009308713565,0.0508164199603234,0.0108347321837325,-0.0291469555928583,-0.0451701510758432,-0.0233480848466352,0.0335724095833968,0.0973599877918509,0.137341675568442,0.149702426369602,0.135205249504044,0.101938043644132,0.0766061345948419,0.0782847550740118,0.112162368380894,0.167251640470014,0.205402105905692,0.200976651915153,0.170761483290096,0.127269952693423,0.0825576072028078,0.0595147260796581,0.0708072638486188,0.115672211200977,0.16984587211964,0.204639096596978,0.213490004578056,0.192278345795819,0.144971768655577,0.100412025026705,0.0849992369906912,0.109415534869525,0.163894399511674,0.204333892873493,0.200061040744697,0.168625057225698,0.124675721043797,0.0807263848618952,0.0607355409735998,0.0747749122539294,0.117961239127117,0.166183427437815,0.190904929040134,0.185869067602625,0.154433084083626,0.102701052952846,0.0549366702273767,0.0361666412330229,0.0561574851213184,0.104837479017244,0.139325499771097,0.129558980619563,0.0943079505569967,0.0466961696932701,-0.00274683351136895,-0.0299099649015719,-0.0207538531970091,0.0245688997405767,0.0839310239584922,0.120250267053258,0.119945063329773,0.0911033114603997,0.0457805585228139,0.00564626888448028,-0.0079352968106212,0.0123607508011597,0.0590569204944299,0.093087135663055,0.0865252556081183,0.0589043186326872,0.0218220662292079,-0.0195330383030674,-0.0445597436288724,-0.0381504654356784,0.00335724095833958,0.0634823744849686,0.104837479017244,0.107736914390355,0.0807263848618952,0.0360140393712802,-0.00549366702273779,-0.0196856401648101,0.00305203723485415,0.0563100869830611,0.0988860064092781,0.0993438119945062,0.0763009308713565,0.0402868915000762,-0.00244162978788352,-0.0276209369754312,-0.0186174271326111,0.0271631313902028,0.0940027468335113,0.140698916526782,0.142987944452922,0.114146192583549,0.0688234396459636,0.0262475202197466,0.010071722875019,0.0312833816572561,0.0849992369906912,0.130627193651762,0.134747443918816,0.115061803754006,0.0810315885853806,0.0355562337860521,0.00305203723485415,0.00335724095833958,0.0459331603845566,0.121928887532428,0.190599725316649,0.226308560964444,0.246757210437967,0.267816267358462,0.304593316038456,0.378300015260186,0.498702884175187,0.661376468792919,0.822981840378452,0.946131542804822,1.0460857622463,1.12849076758736,1.19166793834885,1.25606592400427,1.32916221577903,1.39111857164657,1.40714176712956,1.3329772623226,1.16099496413856,0.936365023653288,0.695406683961544,0.468182511826644,0.290553944758126,0.18281703036777,0.146039981687776,0.137189073706699,0.113383183274836,0.0843888295437203,0.0492904013428963,-0.00152601861742724,-0.0468487715550131,-0.0610407446970854,-0.0328094002746835,0.027620936975431,0.0726384861895314,0.0709598657103615,0.0466961696932701,0.0114451396307034,-0.0286891500076302,-0.0509690218220663,-0.0398290859148483,0.00869830611933455,0.0587517167709445,0.0746223103921867,0.0711124675721043,0.0517320311307797,0.0102243247367617,-0.0299099649015719,-0.0425759194262171,-0.0151075843125287,0.0448649473523576,0.0892720891194871,0.0839310239584922,0.0549366702273767,0.0183122234091255,-0.0196856401648101,-0.0379978635739357,-0.022432473676179,0.0289943537311154,0.0808789867236379,0.0943079505569967,0.0833206165115213,0.061651152144056,0.0268579276667174,-0.00305203723485438,-0.00808789867236391,0.0216694643674652,0.0798107736914389,0.119487257744544,0.109720738593011,0.0816419960323515,0.0500534106516098,0.0148023805890431,-0.00473065771402422,0.00656188005493656,0.0531054478864641,0.102243247367618,0.11307797955135,0.0958339691744238,0.0679078284755073,0.0280787425606591,-0.00701968564016492,-0.014954982450786,0.0177018159621546,0.0863726537463756,0.138867694185869,0.137036471844956,0.110331146039982,0.0753853197009002,0.0332672058599114,0.00518846329925214,0.0106821303219898,0.0593621242179153,0.11979246146803,0.141309323973752,0.126659545246452,0.0976651915153364,0.0560048832595757,0.0169388066534411,0.00686708377842199,0.0396764840531053,0.109568136731268,0.164047001373417,0.165267816267358,0.143140546314665,0.111704562795666,0.0698916526781626,0.040897298947047,0.0460857622462993,0.0943079505569967,0.157027315733252,0.185106058293911,0.177781168930261,0.158400732488936,0.12879597131085,0.0998016175797344,0.094155348695254,0.125743934075996,0.192888753242789,0.247978025331909,0.254082099801617,0.23958492293606,0.215321226918968,0.177323363345033,0.148023805890432,0.148939417060888,0.191667938348848,0.253319090492904,0.283229055394476,0.272394323210743,0.245383793682283,0.207385930108347,0.169388066534412,0.154738287807111,0.180680604303372,0.247520219746681,0.305203723485426,0.314054631466504,0.302914695559286,0.282160842362277,0.246299404852739,0.217762856706852,0.217610254845109,0.256676331451244,0.315885853807416,0.343964596368076,0.327636197161605,0.295742408057378,0.256523729589501,0.217915458568594,0.200824050053411,0.220662292079963,0.277430184648253,0.325041965511979,0.326873187852892,0.310392186784679,0.282160842362277,0.23454906149855,0.191515336487105,0.177933770792004,0.204944300320464,0.256218525866015,0.281092629330078,0.259423164962612,0.218068060430337,0.165267816267358,0.107126506943385,0.0682130321989927,0.0686708377842209,0.111704562795666,0.150618037540058,0.144056157485121,0.117656035403632,0.0819471997558369,0.0306729742102853,-0.0146497787273006,-0.0321989928277126,-0.00885090798107748,0.044101938043644,0.0752327178391575,0.0581413093239736,0.0207538531970089,-0.0247215016023197,-0.0723332824660462,-0.0996490157179919,-0.0895772928429728,-0.0381504654356784,0.0112925377689607,0.0213642606439797,0.0151075843125285,-0.00274683351136895,-0.043186326873188,-0.0827102090645507,-0.0949183580039678,-0.0657714024111095,-0.00320463909659709,0.041965511979246,0.0352510300625666,0.000763009308713455,-0.0457805585228141,-0.0961391728979095,-0.12482832290554,-0.114603998168778,-0.0631771707614834,-0.0120555470776745,-1.11022302462516e-16,-0.00640927819319407,-0.0259423164962614,-0.0662292079963377,-0.105600488325958,-0.118571646574088,-0.0894246909812301,-0.0242636960170915,0.0231954829848923,0.0166336029299556,-0.0158705936212423,-0.0589043186326874,-0.107126506943385,-0.136883869983214,-0.130932397375248,-0.0854570425759195,-0.0381504654356784,-0.0282313444224021,-0.0405920952235618,-0.0653135968258814,-0.106058293911186,-0.143445750038151,-0.155501297115825,-0.129406378757821,-0.0694338470929346,-0.023500686708378,-0.0253319090492905,-0.0489851976194111,-0.0845414314054632,-0.129101175034336,-0.157637723180223,-0.151075843125286,-0.103158858538074,-0.0465435678315277,-0.0230428811231498,-0.0267053258049749,-0.0502060125133528,-0.0953761635891959,-0.140241110941554,-0.15916374179765,-0.137189073706699,-0.0787425606592402,-0.0338776133068825,-0.038913474744392,-0.0680604303372502,-0.10743171066687,-0.15351747291317,-0.182969632229513,-0.178544178238975,-0.13383183274836,-0.0805737830001527,-0.0627193651762553,-0.0756905234243859,-0.103616664123302,-0.145734777964291,-0.185869067602625,-0.201129253776896,-0.177323363345033,-0.117045627956661,-0.0689760415077065,-0.0705020601251336,-0.0949183580039678,-0.129558980619564,-0.173966122386693,-0.203876087288265,-0.197772012818556,-0.149244620784374,-0.0878986723638029,-0.059667327941401,-0.0674500228902794,-0.0961391728979095,-0.141004120250267,-0.184190447123455,-0.202197466809095,-0.180680604303373,-0.120860674500229,-0.0697390508164201,-0.0663818098580804,-0.0883564779490311,-0.122844498702884,-0.167709446055242,-0.19853502212727,-0.194719975583702,-0.148329009613917,-0.0849992369906914,-0.0508164199603236,-0.0541736609186633,-0.0790477643827256,-0.119334655882802,-0.157637723180223,-0.169998473981383,-0.143293148176408,-0.08042118113841,-0.0276209369754312,-0.0215168625057227,-0.0390660766061347,-0.0709598657103618,-0.117350831680147,-0.152449259880971,-0.154433084083626,-0.115977414924462,-0.0581413093239739,-0.0242636960170915,-0.0286891500076302,-0.0566152907065467,-0.102395849229361,-0.151533648710514,-0.178086372653746,-0.163436593926446,-0.10743171066687,-0.0555470776743477,-0.0468487715550131,-0.0631771707614834,-0.0962917747596522,-0.145276972379063,-0.184190447123455,-0.189989317869678,-0.153364871051427,-0.0909507095986572,-0.0488325957576684,-0.0509690218220663,-0.0843888295437205,-0.138562490462384,-0.195940790477644,-0.229818403784526,-0.223714329314818,-0.177781168930261,-0.134594842057073,-0.131390202960476,-0.151381046848772,-0.187242484358309,-0.238211506180375,-0.278193193956966,-0.285823287044102,-0.252403479322448,-0.190294521593164,-0.143140546314665,-0.140088509079811,-0.168014649778727,-0.214558217610255,-0.263848618953151,-0.289027926140699,-0.274835952998627,-0.222798718144361,-0.173508316801465,-0.161452769723791,-0.170914085151839,-0.196398596062872,-0.240042728521288,-0.277430184648253,-0.285212879597131,-0.252250877460705,-0.188768502975736,-0.13947810163284,-0.134900045780559,-0.160231954829849,-0.204639096596979,-0.255608118419045,-0.285975888905845,-0.278345795818709,-0.231344422401953,-0.183274835952999,-0.168472455363956,-0.174576529833664,-0.197924614680299,-0.238821913627346,-0.272699526934229,-0.277124980924767,-0.242026552723943,-0.177323363345033,-0.128338165725622,-0.126659545246452,-0.155348695254082,-0.201434457500382,-0.252403479322448,-0.282008240500534,-0.273157332519457,-0.225392949793988,-0.175644742865863,-0.158400732488936,-0.162215779032504,-0.18388524339997,-0.225698153517473,-0.263696017091409,-0.271783915763772,-0.234701663360293,-0.157942926903708,-0.0834732183732643,-0.0408972989470473,-0.0135815656951016,0.0106821303219898,0.0442545399053867,0.112009766519151,0.228597588890584,0.39203418281703,0.562795666107126,0.701052952846025,0.81046848771555,0.891500076300931,0.943537311155196,0.985045017549214,1.01983824202655,1.03189378910423,1.00305203723485,0.904166030825576,0.728673889821456,0.517625515031283,0.298489241568747,0.0940027468335113,-0.0604303372501146,-0.14512437051732,-0.160079352968106,-0.144666564932092,-0.144208759346864,-0.163589195788189,-0.205554707767435,-0.271478712040287,-0.333282466046086,-0.359529986265833,-0.335418892110484,-0.26995269342286,-0.214405615748512,-0.205554707767435,-0.223103921867847,-0.256371127727758,-0.300778269494888,-0.329925225087746,-0.32336334503281,-0.275141156722112,-0.215168625057226,-0.183580039676484,-0.182359224782542,-0.206317717076148,-0.254082099801618,-0.300625667633145,-0.317411872424844,-0.289180528002442,-0.222188310697391,-0.166336029299558,-0.160079352968106,-0.182359224782542,-0.220967495803449,-0.269800091561117,-0.301236075080116,-0.294674195025179,-0.2429421638944,-0.175797344727606,-0.141004120250267,-0.143293148176408,-0.168930260949184,-0.213795208301541,-0.257134137036472,-0.272241721349001,-0.245078589958798,-0.180833206165115,-0.12879597131085,-0.126201739661224,-0.147871204028689,-0.1822066229208,-0.227529375858386,-0.258049748206928,-0.252098275598962,-0.203265679841294,-0.138257286738898,-0.103921867846788,-0.109262933007783,-0.139325499771097,-0.186326873187853,-0.230734014954983,-0.247062414161453,-0.221272699526934,-0.156722112009767,-0.100869830611934,-0.0930871356630552,-0.111857164657409,-0.143293148176408,-0.184037845261712,-0.211048374790173,-0.205249504043949,-0.159621547382878,-0.0953761635891959,-0.0561574851213186,-0.0566152907065467,-0.0822524034793226,-0.125591332214253,-0.169235464672669,-0.187395086220052,-0.165267816267359,-0.105600488325958,-0.054326262780406,-0.0476117808637266,-0.0627193651762553,-0.0903403021516864,-0.131237601098734,-0.160384556691592,-0.155501297115825,-0.107279108805128,-0.0350984282008242,0.0123607508011597,0.0140393712803295,-0.0119029452159317,-0.0544788646421487,-0.0973599877918512,-0.114298794445292,-0.0898824965664582,-0.0270105295284604,0.0280787425606591,0.0386082710209063,0.0247215016023194,-0.00457805585228151,-0.0483747901724402,-0.0805737830001527,-0.0779795513505266,-0.0317411872424845,0.0425759194262169,0.0981229971005645,0.106058293911186,0.0822524034793223,0.0407446970853043,-0.00228902792614081,-0.022432473676179,-0.0033572409583398,0.0553944758126048,0.110941553486952,0.12543873035251,0.117198229818404,0.0926293300778268,0.050511216236838,0.0161757973447275,0.0129711582481305,0.0502060125133525,0.115519609339234,0.163436593926446,0.162673584617732,0.130321989928277,0.0807263848618952,0.0285365481458873,0.000610407446970742,0.0129711582481305,0.0651609949641384,0.115214405615748,0.125133526629025,0.112009766519151,0.0820998016175796,0.0337250114451395,-0.00808789867236391,-0.0199908438882955,0.00717228750190741,0.063787578208454,0.102701052952846,0.0917137189073706,0.0508164199603234,-0.00503586143750965,-0.0625667633145125,-0.0952235617274532,-0.0882038760872884,-0.0427285212879598,0.00152601861742702,0.00763009308713555,-0.0109873340454755,-0.0476117808637266,-0.101480238058904,-0.14680299099649,-0.158400732488936,-0.127269952693423,-0.0657714024111095,-0.0231954829848925,-0.0323515946894553,-0.0701968564016482,-0.11979246146803,-0.169998473981383,-0.1968564016481,-0.185869067602625,-0.137036471844957,-0.0866778574698612,-0.0697390508164201,-0.0743171066687015,-0.096902182206623,-0.13947810163284,-0.176407752174577,-0.183580039676484,-0.151381046848772,-0.0891194872577447,-0.0450175492141005,-0.052189836716008,-0.0874408667785748,-0.135663055089272,-0.187395086220052,-0.215931634365939,-0.203723485426522,-0.149397222646116,-0.0894246909812301,-0.0633297726232261,-0.0645505875171678,-0.0862200518846331,-0.129406378757821,-0.170456279566611,-0.182817030367771,-0.153212269189684,-0.0892720891194874,-0.0405920952235618,-0.0428811231497025,-0.0720280787425608,-0.112162368380894,-0.156874713871509,-0.182664428506028,-0.171371890737067,-0.120250267053258,-0.0608881428353427,-0.0340302151686252,-0.0402868915000764,-0.0720280787425608,-0.12314970242637,-0.167404242331757,-0.179154585685945,-0.148634213337403,-0.0851518388524341,-0.0370822524034794,-0.0386082710209066,-0.0656188005493668,-0.106058293911186,-0.154738287807111,-0.185106058293911,-0.176560354036319,-0.124980924767282,-0.0608881428353427,-0.0282313444224021,-0.0315885853807418,-0.0587517167709447,-0.103769265985045,-0.146039981687777,-0.161147566000305,-0.135205249504044,-0.0746223103921869,-0.0274683351136885,-0.0291469555928583,-0.0566152907065467,-0.096902182206623,-0.144361361208607,-0.174576529833664,-0.170151075843125,-0.126201739661224,-0.0659240042728522,-0.0318937891042272,-0.0344880207538533,-0.062871967037998,-0.110331146039982,-0.156416908286281,-0.174423927971921,-0.150770639401801,-0.0917137189073708,-0.0437967343201588,-0.0419655119792463,-0.0669922173050512,-0.107736914390356,-0.156874713871509,-0.188463299252251,-0.184037845261712,-0.138409888600641,-0.0723332824660462,-0.0297573630398292,-0.0277735388371739,-0.0535632534716925,-0.0985808026857929,-0.143750953761636,-0.162368380894247,-0.139630703494583,-0.0784373569357547,-0.0221272699526935,-0.00717228750190763,-0.018159621547383,-0.0476117808637266,-0.0909507095986572,-0.121776285670685,-0.119182054021059,-0.0758431252861286,-0.00839310239584934,0.0389134747443918,0.0415077063940179,0.00961391728979082,-0.0439493361819015,-0.0984282008240502,-0.126506943384709,-0.113230581413093,-0.0608881428353427,-0.0126659545246453,-0.00473065771402422,-0.0204486494735237,-0.051121623683809,-0.0938501449717688,-0.124217915458569,-0.122386693117656,-0.0822524034793226,-0.0195330383030674,0.0230428811231496,0.0193804364413245,-0.0175492141004121,-0.074011902945216,-0.13047459179002,-0.160689760415077,-0.150312833816573,-0.102548451091103,-0.0587517167709447,-0.0538684571951779,-0.0737066992217306,-0.111399359072181,-0.164047001373417,-0.205554707767435,-0.213184800854571,-0.179764993132916,-0.119487257744545,-0.0769113383183276,-0.0802685792766673,-0.115977414924462,-0.170608881428354,-0.226461162826187,-0.256523729589501,-0.246604608576225,-0.197619410956814,-0.147566000305204,-0.13215321226919,-0.142072333282466,-0.171829696322295,-0.218373264153823,-0.255302914695559,-0.258812757515642,-0.218678467877308,-0.148634213337403,-0.095833969174424,-0.0917137189073708,-0.1214710819472,-0.170914085151839,-0.223714329314818,-0.252403479322448,-0.240653135968259,-0.188310697390508,-0.132763619716161,-0.11078895162521,-0.115367007477491,-0.142224935144209,-0.187547688081795,-0.225240347932245,-0.231191820540211,-0.196703799786357,-0.13383183274836,-0.0878986723638029,-0.0904929040134291,-0.12711735083168,-0.182511826644285,-0.238974515489089,-0.26827407294369,-0.254387303525103,-0.198840225850755,-0.138562490462384,-0.110941553486953,-0.111857164657409,-0.138409888600641,-0.18617427132611,-0.227529375858386,-0.236838089424691,-0.204944300320464,-0.143445750038151,-0.0985808026857929,-0.100259423164963,-0.127880360140394,-0.162978788341218,-0.189684114146193,-0.180985808026858,-0.120097665191515,-0.00625667633145135,0.129253776896078,0.252250877460705,0.360140393712803,0.449259880970548,0.518388524339997,0.5905692049443,0.688386998321379,0.821455821761025,0.978940943079505,1.11750343354189,1.19655119792461,1.20067144819167,1.11368838699832,0.948878376316191,0.754311002594231,0.571951777811689,0.424385777506485,0.299099649015718,0.173660918663208,0.0517320311307797,-0.065008393102396,-0.174576529833664,-0.255150312833817,-0.290706546619869,-0.280482221883107,-0.238516709903861,-0.209674958034488,-0.222798718144361,-0.258660155653899,-0.301846482527087,-0.340302151686251,-0.35037387456127,-0.320463909659698,-0.255302914695559,-0.185411262017397,-0.146192583549519,-0.142987944452922,-0.169693270257897,-0.217305051121624,-0.259728368686098,-0.271783915763772,-0.243705173203113,-0.186021669464368,-0.144361361208607,-0.150770639401801,-0.186479475049596,-0.236532885701206,-0.286891500076301,-0.309629177475965,-0.291011750343354,-0.234701663360293,-0.167556844193499,-0.12543873035251,-0.121623683808943,-0.151991454295743,-0.203418281703037,-0.247672821608424,-0.260643979856554,-0.233480848466351,-0.175339539142378,-0.129864184343049,-0.12879597131085,-0.153822676636655,-0.193956966274989,-0.240653135968259,-0.266290248741035,-0.254082099801618,-0.203876087288265,-0.137189073706699,-0.0917137189073708,-0.0863726537463758,-0.115519609339234,-0.166030825576072,-0.211658782237143,-0.225850755379216,-0.197161605371586,-0.133984434610102,-0.0834732183732643,-0.0799633755531819,-0.104532275293759,-0.14451396307035,-0.191973142072333,-0.220051884632993,-0.209674958034488,-0.157790325041966,-0.0848466351289487,-0.0334198077216543,-0.0279261406989166,-0.0579887074622311,-0.10743171066687,-0.151991454295743,-0.165878223714329,-0.139325499771097,-0.0790477643827256,-0.0285365481458875,-0.0215168625057227,-0.0404394933618191,-0.0737066992217306,-0.113840988860064,-0.134747443918816,-0.119487257744545,-0.0677552266137648,0.0024416297878833,0.0518846329925224,0.0558522813978329,0.0268579276667174,-0.0201434457500383,-0.0642453837936824,-0.0792003662444683,-0.0529528460247216,0.00732488936365012,0.0604303372501143,0.0737066992217304,0.0633297726232259,0.0381504654356782,0.00137341675568431,-0.0218220662292081,-0.0114451396307036,0.0383030672974209,0.111857164657409,0.16481001068213,0.169693270257897,0.141919731420723,0.0970547840683655,0.0544788646421485,0.0383030672974209,0.0602777353883716,0.11811384098886,0.172745307492751,0.189073706699222,0.179459789409431,0.151991454295742,0.111551960933923,0.0839310239584922,0.0891194872577444,0.132458415992675,0.200824050053411,0.25087746070502,0.253929497939875,0.224477338623531,0.176255150312834,0.126964748969937,0.10407446970853,0.120708072638486,0.173660918663208,0.224782542347017,0.239279719212574,0.226766366549672,0.192278345795819,0.138562490462384,0.0921715244925987,0.0781321532122691,0.106058293911186,0.16252098275599,0.200824050053411,0.190141919731421,0.147108194719975,0.0862200518846329,0.0241110941553486,-0.0122081489394172,-0.00869830611933477,0.0328094002746832,0.0766061345948419,0.0871356630550892,0.070196856401648,0.0296047611780863,-0.0305203723485428,-0.0816419960323517,-0.0982755989623074,-0.0720280787425608,-0.016023195482985,0.0230428811231496,0.0135815656951014,-0.0260949183580041,-0.0802685792766673,-0.133221425301389,-0.158858538074165,-0.142987944452922,-0.0886616816725165,-0.0312833816572563,-0.00625667633145135,-0.00930871356630562,-0.038913474744392,-0.0918663207691135,-0.139172897909355,-0.153364871051427,-0.122844498702884,-0.0590569204944301,-0.0114451396307036,-0.0140393712803297,-0.0477643827254694,-0.0961391728979095,-0.145276972379063,-0.169388066534412,-0.153670074774912,-0.0978177933770793,-0.0344880207538533,-0.00137341675568453,0.00152601861742702,-0.0222798718144362,-0.0688234396459638,-0.10911033114604,-0.117503433541889,-0.0860674500228904,-0.0250267053258051,0.0195330383030672,0.0155653898977566,-0.0177018159621548,-0.0665344117198231,-0.119945063329773,-0.15016023195483,-0.13779948115367,-0.0822524034793226,-0.016023195482985,0.0210590569204943,0.0236532885701204,-0.00457805585228151,-0.0570730962917749,-0.105295284602472,-0.120860674500229,-0.0927819319395698,-0.0311307797955136,0.0172440103769265,0.0175492141004119,-0.0120555470776745,-0.0589043186326874,-0.11246757210438,-0.143750953761636,-0.133374027163131,-0.0790477643827256,-0.00869830611933477,0.0355562337860521,0.0412025026705325,0.0137341675568441,-0.0370822524034794,-0.0849992369906914,-0.102548451091103,-0.0784373569357547,-0.020296047611781,0.026552723943232,0.027620936975431,0.000457805585228029,-0.0433389287349307,-0.095833969174424,-0.128338165725622,-0.120555470776744,-0.0694338470929346,-0.000305203723485538,0.0427285212879596,0.0437967343201586,0.0131237601098732,-0.037845261712193,-0.0856096444376622,-0.103158858538074,-0.0792003662444683,-0.0215168625057227,0.0239584922936059,0.0231954829848923,-0.0044254539905388,-0.0479169845872121,-0.0999542194414773,-0.133221425301389,-0.127727758278651,-0.079352968106211,-0.00930871356630562,0.0372348542652219,0.0390660766061345,0.00854570425759183,-0.0427285212879598,-0.0944605524187396,-0.11811384098886,-0.0982755989623074,-0.0393712803296201,0.0125133526629024,0.0193804364413245,-0.000457805585228251,-0.0363192430947659,-0.083625820235007,-0.115824813062719,-0.111704562795666,-0.0645505875171678,0.00915611170456268,0.0651609949641384,0.0741645048069585,0.0470013734167556,-1.11022302462516e-16,-0.0441019380436442,-0.0581413093239739,-0.0303677704868,0.0320463909659697,0.0857622462994047,0.0953761635891957,0.075537921562643,0.0355562337860521,-0.0193804364413247,-0.0624141614527698,-0.0698916526781628,-0.0332672058599116,0.0314359835189988,0.0802685792766671,0.0842362276819776,0.0544788646421485,0.00488325957576671,-0.0450175492141005,-0.0685182359224784,-0.0515794292690372,0.00137341675568431,0.0508164199603234,0.0604303372501143,0.0410499008087898,0.000610407446970742,-0.0538684571951779,-0.0952235617274532,-0.101022432473676,-0.0643979856554251,-0.000763009308713677,0.0445597436288722,0.044101938043644,0.0138867694185868,-0.0334198077216543,-0.0842362276819778,-0.111857164657409,-0.101480238058904,-0.0544788646421487,-0.00839310239584934,0.00198382420265516,-0.0129711582481307,-0.0489851976194111,-0.102548451091103,-0.146192583549519,-0.156111704562796,-0.124217915458569,-0.0640927819319397,-0.0207538531970091,-0.0238058904318634,-0.0578361056004884,-0.108957729284297,-0.162215779032504,-0.191057530901877,-0.178696780100717,-0.125896535937739,-0.0692812452311919,-0.0453227529375859,-0.0489851976194111,-0.0778269494887839,-0.127575156416908,-0.169235464672669,-0.177781168930261,-0.143903555623379,-0.0802685792766673,-0.032504196551198,-0.0326567984129407,-0.0648557912406532,-0.11475660003052,-0.166183427437815,-0.190904929040134,-0.172745307492752,-0.11414619258355,-0.0523424385777508,-0.0248741034640624,-0.0274683351136885,-0.0561574851213186,-0.106363497634671,-0.149855028231345,-0.160994964138563,-0.130932397375248,-0.0705020601251336,-0.0248741034640624,-0.0253319090492905,-0.0544788646421487,-0.0987334045475356,-0.14680299099649,-0.173050511216237,-0.160384556691592,-0.107584312528613,-0.0473065771402412,-0.0166336029299559,-0.0184648252708684,-0.0517320311307799,-0.109720738593011,-0.162368380894247,-0.181443613612086,-0.156416908286281,-0.0987334045475356,-0.0515794292690372,-0.043186326873188,-0.0538684571951779,-0.0666870135815658,-0.0674500228902794,-0.0309781779337709,0.0589043186326872,0.203265679841294,0.371432931481764,0.525560811841904,0.653898977567526,0.748359529986266,0.811994506332977,0.874408667785747,0.962612543873035,1.08347321837326,1.21898367160079,1.30734014954982,1.29192736151381,1.17472913169541,0.978483137494277,0.739356020143446,0.509537616358919,0.326567984129406,0.204639096596978,0.124217915458568,0.0529528460247214,-0.0187700289943538,-0.0930871356630552,-0.169082862810926,-0.228597588890585,-0.252250877460705,-0.232870441019381,-0.180833206165115,-0.141004120250267,-0.144208759346864,-0.169082862810926,-0.204028689150008,-0.2429421638944,-0.262322600335724,-0.247062414161453,-0.196398596062872,-0.133984434610102,-0.0970547840683657,-0.099038608271021,-0.131084999236991,-0.181291011750343,-0.225240347932245,-0.238364108042118,-0.210590569204944,-0.149855028231345,-0.10178544178239,-0.100412025026705,-0.12543873035251,-0.164962612543873,-0.211963985960629,-0.238516709903861,-0.226461162826187,-0.175797344727606,-0.108805127422555,-0.0654661986876241,-0.0647031893789105,-0.0953761635891959,-0.143598351899893,-0.185563863879139,-0.195788188615901,-0.164047001373417,-0.0988860064092783,-0.0476117808637266,-0.0453227529375859,-0.0706546619868764,-0.110941553486953,-0.160537158553334,-0.191820540210591,-0.185411262017397,-0.138715092324126,-0.0711124675721045,-0.0250267053258051,-0.0239584922936061,-0.054326262780406,-0.0999542194414773,-0.141461925835495,-0.156111704562796,-0.132000610407447,-0.0737066992217306,-0.0242636960170915,-0.0184648252708684,-0.0381504654356784,-0.0738593010834733,-0.119945063329773,-0.14848161147566,-0.141004120250267,-0.0949183580039678,-0.0268579276667176,0.0213642606439797,0.0239584922936059,-0.00396764840531066,-0.0476117808637266,-0.0888142835342592,-0.103616664123302,-0.0799633755531819,-0.0221272699526935,0.0279261406989164,0.0375400579887073,0.0238058904318632,-0.00457805585228151,-0.044254539905387,-0.0706546619868764,-0.0645505875171678,-0.0193804364413247,0.0508164199603234,0.10178544178239,0.104990080878987,0.0779795513505264,0.0375400579887073,-0.000610407446970964,-0.012818556386388,0.0138867694185868,0.0763009308713565,0.134289638333588,0.152754463604456,0.145582176102548,0.121165878223714,0.0830154127880359,0.0569204944300319,0.0633297726232259,0.10911033114604,0.18052800244163,0.232260033572409,0.235769876392492,0.210132763619716,0.170303677704868,0.129101175034335,0.110483747901724,0.129558980619563,0.184953456432168,0.240500534106516,0.260796581718297,0.254845109110331,0.228292385167099,0.184953456432168,0.151228444987029,0.149397222646116,0.187242484358309,0.252250877460705,0.298947047153975,0.297878834121776,0.268121471081947,0.223256523729589,0.175644742865863,0.151381046848771,0.166030825576072,0.218525866015565,0.272089119487258,0.291774759652068,0.283839462841447,0.251030062566763,0.194567373721959,0.142072333282466,0.119945063329773,0.140088509079811,0.192583549519304,0.229360598199298,0.215473828780711,0.169082862810926,0.104990080878987,0.0372348542652219,-0.00549366702273779,-0.00549366702273779,0.0379978635739355,0.0891194872577444,0.10911033114604,0.0991912101327635,0.0608881428353425,-0.00259423164962624,-0.0607355409736,-0.0839310239584924,-0.0602777353883718,-0.00228902792614081,0.0393712803296199,0.0299099649015717,-0.0100717228750192,-0.0645505875171678,-0.121013276361972,-0.151838852434,-0.139783305356325,-0.0854570425759195,-0.0225850755379217,0.00869830611933455,0.00671448191667927,-0.023500686708378,-0.0764535327330994,-0.123760109873341,-0.139325499771097,-0.112009766519152,-0.0505112162368382,-0.00320463909659709,-0.00518846329925236,-0.0372348542652221,-0.0853044407141768,-0.137952083015413,-0.165725621852587,-0.151533648710514,-0.0964443766213949,-0.0302151686250573,0.00686708377842199,0.00778269494887826,-0.020296047611781,-0.0700442545399055,-0.115977414924462,-0.131084999236991,-0.103311460399817,-0.0407446970853046,0.00778269494887826,0.00717228750190741,-0.0209064550587518,-0.0627193651762553,-0.110941553486953,-0.140393712803296,-0.132611017854418,-0.0845414314054632,-0.02136426064398,0.0158705936212421,0.0151075843125285,-0.0144971768655579,-0.0647031893789105,-0.112772775827865,-0.131084999236991,-0.106058293911186,-0.0447123454906151,0.00564626888448028,0.0093087135663054,-0.0144971768655579,-0.0529528460247216,-0.0988860064092783,-0.126964748969938,-0.119487257744545,-0.0723332824660462,-0.00640927819319407,0.0347932244773385,0.0354036319243094,0.00869830611933455,-0.0366244468182513,-0.082557607202808,-0.102395849229361,-0.0810315885853808,-0.0209064550587518,0.0314359835189988,0.0376926598504501,0.0175492141004119,-0.0186174271326111,-0.0669922173050512,-0.101175034335419,-0.100259423164963,-0.0569204944300322,0.00915611170456268,0.0512742255455515,0.0489851976194108,0.0192278345795818,-0.0282313444224021,-0.0776743476270412,-0.100869830611934,-0.082557607202808,-0.0273157332519458,0.0198382420265526,0.0238058904318632,0.004730657714024,-0.0286891500076302,-0.0759957271478713,-0.111704562795666,-0.112772775827865,-0.0695864489546774,0.00198382420265516,0.0520372348542651,0.0520372348542651,0.019075232717839,-0.0321989928277126,-0.0851518388524341,-0.112772775827865,-0.097970395238822,-0.0415077063940181,0.0123607508011597,0.0235006867083777,0.00915611170456268,-0.0210590569204945,-0.0662292079963377,-0.100259423164963,-0.100259423164963,-0.058599114909202,0.00961391728979082,0.0584465130474591,0.0579887074622309,0.0264001220814893,-0.022432473676179,-0.0752327178391577,-0.10514268274073,-0.0936975431100261,-0.038913474744392,0.0164810010682129,0.0331146039981687,0.0279261406989164,0.00717228750190741,-0.0329620021364262,-0.0662292079963377,-0.0657714024111095,-0.0199908438882955,0.0590569204944299,0.121165878223714,0.130627193651762,0.106668701358156,0.064855791240653,0.0180070196856401,-0.00686708377842221,0.00595147260796571,0.0589043186326872,0.112009766519151,0.126506943384709,0.118266442850603,0.0915611170456278,0.0428811231497023,-0.000305203723485538,-0.0115977414924463,0.0213642606439797,0.089882496566458,0.142224935144209,0.14115672211201,0.111094155348695,0.0682130321989927,0.021211658782237,-0.00289943537311166,0.0141919731420722,0.0738593010834731,0.133068823439646,0.149092018922631,0.136426064397986,0.104684877155501,0.0512742255455515,-1.11022302462516e-16,-0.0207538531970091,0.00503586143750943,0.0706546619868761,0.121013276361971,0.114298794445292,0.0759957271478711,0.0245688997405767,-0.0318937891042272,-0.0683656340607356,-0.0656188005493668,-0.0186174271326111,0.0350984282008239,0.0499008087898671,0.0349458263390812,0.00213642606439787,-0.0483747901724402,-0.0933923393865406,-0.107279108805128,-0.077216542041813,-0.00930871356630562,0.0436441324584159,0.0425759194262169,0.0148023805890431,-0.0241110941553488,-0.0714176712955899,-0.101022432473676,-0.0914085151838853,-0.0392186784678774,0.019075232717839,0.0393712803296199,0.027620936975431,-0.000763009308713677,-0.0459331603845568,-0.0886616816725165,-0.103311460399817,-0.0746223103921869,-0.00656188005493678,0.0479169845872119,0.0485273920341827,0.021211658782237,-0.0193804364413247,-0.0697390508164201,-0.103158858538074,-0.0987334045475356,-0.0500534106516101,0.0102243247367617,0.0352510300625666,0.025484510911033,-1.11022302462516e-16,-0.038913474744392,-0.0764535327330994,-0.0888142835342592,-0.0601251335266291,0.00732488936365012,0.0622615595910269,0.0642453837936822,0.0405920952235616,0.00503586143750943,-0.0404394933618191,-0.0715702731573326,-0.0682130321989929,-0.0242636960170915,0.0323515946894551,0.0540210590569204,0.0357088356477948,-0.00122081489394182,-0.0495956050663819,-0.0920189226308562,-0.101175034335419,-0.057530901877003,0.0375400579887073,0.133831832748359,0.193041355104532,0.241568747138715,0.291011750343354,0.341675568441935,0.417823897451549,0.537311155196093,0.701968564016481,0.883106973905081,1.03174118724248,1.13459484205707,1.20753853197009,1.2522508774607,1.26705325804975,1.25164047001373,1.20769113383183,1.13902029604761,1.01419197314207,0.817182969632229,0.596368075690523,0.381962459942011,0.183885243399969,0.0314359835189988,-0.0518846329925226,-0.059667327941401,-0.0215168625057227,-0.00167862047916996,-0.0264001220814895,-0.0743171066687015,-0.133526629024874,-0.18785289180528,-0.210590569204944,-0.185563863879139,-0.114298794445292,-0.0471539752784985,-0.0280787425606593,-0.036777048679994,-0.0662292079963377,-0.117045627956661,-0.158858538074165,-0.16481001068213,-0.122539294979399,-0.0502060125133528,-0.00320463909659709,-0.00732488936365035,-0.038913474744392,-0.0859148481611477,-0.136426064397986,-0.162673584617732,-0.14451396307035,-0.0801159774149246,-0.0184648252708684,-0.00289943537311166,-0.00930871356630562,-0.0300625667633146,-0.0720280787425608,-0.111246757210438,-0.120860674500229,-0.084694033267206,-0.016023195482985,0.0294521593163435,0.022279871814436,-0.00961391728979104,-0.052189836716008,-0.0981229971005647,-0.123454906149855,-0.109262933007783,-0.0514268274072945,0.00442545399053857,0.0172440103769265,0.00976651915153354,-0.0123607508011599,-0.056462688844804,-0.0961391728979095,-0.104227071570273,-0.0668396154433085,0.00534106516099485,0.0573783000152601,0.0529528460247214,0.0184648252708682,-0.031435983518999,-0.0894246909812301,-0.129101175034336,-0.129101175034336,-0.081489394170609,-0.0262475202197468,-0.0056462688844805,-1.11022302462516e-16,-0.00259423164962624,-0.0277735388371739,-0.059667327941401,-0.0709598657103618,-0.0408972989470473,0.0296047611780863,0.0863726537463756,0.08774607050206,0.0628719670379977,0.025484510911033,-0.0236532885701207,-0.059667327941401,-0.0581413093239739,-0.00930871356630562,0.0471539752784983,0.0645505875171676,0.0584465130474591,0.0421181138409887,0.00671448191667927,-0.031435983518999,-0.0454753547993287,-0.0154127880360142,0.0581413093239736,0.120402868915001,0.128643369449107,0.111704562795666,0.0837784220967495,0.0448649473523576,0.020143445750038,0.0325041965511978,0.0911033114603997,0.156874713871509,0.179154585685945,0.170608881428353,0.150312833816572,0.113840988860064,0.0767587364565847,0.0656188005493666,0.0991912101327635,0.174576529833664,0.23622768197772,0.242026552723943,0.222035708835648,0.189989317869678,0.14512437051732,0.11307797955135,0.119182054021059,0.173966122386693,0.240500534106516,0.26491683198535,0.253929497939875,0.23058141309324,0.195788188615901,0.163589195788188,0.157790325041965,0.192583549519304,0.262933007782695,0.314665038913475,0.308866168167251,0.27727758278651,0.236075080115977,0.185563863879139,0.150007630093087,0.149549824507859,0.19121013276362,0.243094765756142,0.256218525866015,0.231649626125439,0.190904929040134,0.137952083015413,0.088814283534259,0.0679078284755073,0.0869830611933464,0.140088509079811,0.176865557759805,0.160994964138562,0.120250267053258,0.0651609949641384,-0.00289943537311166,-0.0549366702273769,-0.0656188005493668,-0.0276209369754312,0.0277735388371737,0.0486799938959254,0.0282313444224018,-0.0122081489394172,-0.0669922173050512,-0.120097665191515,-0.145429574240806,-0.12543873035251,-0.0611933465588281,-0.00625667633145135,-0.00350984282008252,-0.0248741034640624,-0.0601251335266291,-0.111399359072181,-0.151228444987029,-0.153975278498398,-0.108194719975584,-0.0405920952235618,-0.00824050053410663,-0.0245688997405769,-0.0657714024111095,-0.121013276361972,-0.173508316801465,-0.196245994201129,-0.170608881428354,-0.0988860064092783,-0.035708835647795,-0.0257897146345187,-0.0437967343201588,-0.079352968106211,-0.133221425301389,-0.175644742865863,-0.179612391271174,-0.133221425301389,-0.0616511521440563,-0.0212116587822373,-0.0306729742102855,-0.0657714024111095,-0.117198229818404,-0.170151075843125,-0.196093392339387,-0.176712955898062,-0.112772775827865,-0.0540210590569206,-0.0434915305966734,-0.0578361056004884,-0.0877460705020602,-0.136273462536243,-0.177933770792004,-0.185869067602625,-0.146650389134748,-0.0776743476270412,-0.0337250114451397,-0.0402868915000764,-0.0738593010834733,-0.122844498702884,-0.174271326110179,-0.201434457500382,-0.18617427132611,-0.128032962002137,-0.0730962917747598,-0.0607355409736,-0.0679078284755075,-0.0872882649168321,-0.126049137799481,-0.161147566000305,-0.166641233023043,-0.12879597131085,-0.0604303372501146,-0.0141919731420724,-0.0199908438882955,-0.0531054478864643,-0.0996490157179919,-0.149092018922631,-0.17549214100412,-0.160079352968106,-0.101632839920647,-0.0454753547993287,-0.031435983518999,-0.0381504654356784,-0.0605829391118573,-0.105600488325958,-0.147718602166947,-0.159468945521135,-0.125286128490768,-0.0538684571951779,-0.000152601861742824,-0.00137341675568453,-0.0320463909659699,-0.0769113383183276,-0.127575156416908,-0.15748512131848,-0.146345185411262,-0.0891194872577447,-0.0311307797955136,-0.016023195482985,-0.0233480848466352,-0.0460857622462995,-0.0912559133221426,-0.133526629024874,-0.144819166793835,-0.109415534869526,-0.0355562337860523,0.0196856401648099,0.0164810010682129,-0.0173966122386694,-0.0648557912406532,-0.118571646574088,-0.151228444987029,-0.139935907218068,-0.0790477643827256,-0.014954982450786,0.00289943537311144,-0.0079352968106212,-0.0326567984129407,-0.0758431252861286,-0.116893026094918,-0.129864184343049,-0.0984282008240502,-0.0267053258049749,0.02868915000763,0.0253319090492903,-0.00701968564016492,-0.0524950404394935,-0.106668701358157,-0.141461925835495,-0.133068823439646,-0.0741645048069588,-0.00869830611933477,0.00991912101327625,-0.00427285212879608,-0.0309781779337709,-0.0717228750190753,-0.108194719975584,-0.115672211200977,-0.0795055699679537,-0.0044254539905388,0.0529528460247214,0.0524950404394932,0.0285365481458873,-0.00274683351136895,-0.0425759194262171,-0.0663818098580804,-0.0508164199603236,0.0120555470776742,0.0822524034793223,0.105447886464215,0.0911033114603997,0.063787578208454,0.0250267053258049,-0.0100717228750192,-0.0190752327178393,0.0122081489394169,0.0787425606592399,0.124523119182054,0.11246757210438,0.0810315885853806,0.0471539752784983,0.00763009308713555,-0.0166336029299559,-0.00717228750190763,0.0428811231497023,0.100564626888448,0.113383183274836,0.0882038760872881,0.0558522813978329,0.0192278345795818,-0.0137341675568443,-0.0241110941553488,0.00412025026705315,0.0700442545399053,0.118724248435831,0.111094155348695,0.0837784220967495,0.0485273920341827,-0.00122081489394182,-0.039981687776591,-0.0424233175644744,0.00335724095833958,0.0643979856554249,0.0792003662444681,0.0480695864489546,0.00457805585228129,-0.0480695864489548,-0.10178544178239,-0.129406378757821,-0.108499923699069,-0.037845261712193,0.0227376773996642,0.026552723943232,0.0070196856401647,-0.0228902792614071,-0.0708072638486191,-0.110483747901725,-0.113688386998321,-0.0654661986876241,0.00350984282008229,0.029757363039829,0.00625667633145113,-0.0306729742102855,-0.0743171066687015,-0.116587822371433,-0.133068823439646,-0.104684877155501,-0.0296047611780865,0.0355562337860521,0.044101938043644,0.0285365481458873,-0.000610407446970964,-0.051121623683809,-0.0941553486952542,-0.0999542194414773,-0.0524950404394935,0.020143445750038,0.0517320311307797,0.0306729742102853,-0.00457805585228151,-0.0483747901724402,-0.0949183580039678,-0.115214405615749,-0.0860674500228904,-0.00579887074622321,0.0653135968258812,0.0781321532122691,0.0679078284755073,0.0474591790019837,0.00656188005493656,-0.0303677704868,-0.0355562337860523,0.00686708377842199,0.073401495498245,0.100412025026705,0.0740119029452158,0.0352510300625666,-0.00869830611933477,-0.0582939111857166,-0.0878986723638029,-0.074011902945216,-0.00900350984282019,0.0534106516099495,0.0639401800701967,0.0528002441629787,0.0309781779337707,-0.00976651915153376,-0.0405920952235618,-0.0282313444224021,0.047306577140241,0.167862047916984,0.267205859911491,0.323210743171067,0.375858385472303,0.433541889211048,0.49717686555776,0.589806195635587,0.728063482374485,0.912864336944911,1.09049290401343,1.21211658782237,1.30398290859148,1.36609186632077,1.36197161605372,1.28857012055547,1.17152449259881,1.0471539752785,0.92522508774607,0.763314512437052,0.553944758126049,0.352357698763925,0.176560354036319,0.0268579276667174,-0.0724858843277889,-0.102548451091103,-0.0610407446970854,-0.00854570425759205,-0.0103769265985046,-0.042118113840989,-0.0790477643827256,-0.127880360140394,-0.169235464672669,-0.174271326110179,-0.12482832290554,-0.0350984282008242,0.023348084846635,0.0144971768655576,-0.0183122234091257,-0.0592095223561729,-0.107889516252098,-0.13779948115367,-0.124217915458569,-0.0573783000152603,0.0117503433541888,0.0202960476117808,-0.00854570425759205,-0.0453227529375859,-0.0952235617274532,-0.14115672211201,-0.153364871051427,-0.112620173966122,-0.0265527239432322,0.0369296505417365,0.0347932244773385,0.00778269494887826,-0.0280787425606593,-0.0759957271478713,-0.108652525560812,-0.0982755989623074,-0.0337250114451397,0.0350984282008239,0.0445597436288722,0.0140393712803295,-0.0218220662292081,-0.0660766061345949,-0.106668701358157,-0.119029452159316,-0.0854570425759195,-0.00640927819319407,0.0560048832595757,0.0552418739508621,0.0300625667633144,-0.00381504654356794,-0.0538684571951779,-0.0933923393865406,-0.0930871356630552,-0.0398290859148483,0.0221272699526933,0.0294521593163435,-0.0021364260643981,-0.0372348542652221,-0.0799633755531819,-0.121318480085457,-0.134747443918816,-0.0991912101327637,-0.0151075843125287,0.0529528460247214,0.0569204944300319,0.0363192430947656,0.00656188005493656,-0.0402868915000764,-0.0788951625209829,-0.0810315885853808,-0.0312833816572563,0.0325041965511978,0.0474591790019837,0.0219746680909506,-0.00701968564016492,-0.042118113840989,-0.0779795513505266,-0.0907981077369145,-0.0589043186326874,0.0204486494735235,0.0880512742255454,0.0956813673126811,0.0788951625209826,0.051579429269037,0.00579887074622299,-0.0328094002746835,-0.036777048679994,0.0105295284602471,0.0773691439035555,0.100869830611933,0.0817945978940942,0.0540210590569204,0.0187700289943536,-0.0175492141004121,-0.0300625667633146,0.00228902792614059,0.0814893941706088,0.150312833816572,0.164047001373417,0.157027315733252,0.136578666259728,0.0924767282160841,0.051579429269037,0.0439493361819013,0.08774607050206,0.154585685945368,0.181596215473829,0.163894399511674,0.1361208606745,0.0999542194414771,0.0590569204944299,0.0393712803296199,0.0654661986876239,0.142682740729437,0.213032198992828,0.227834579581871,0.219594079047764,0.198077216542042,0.153059667327941,0.111094155348695,0.101480238058904,0.142072333282466,0.208148939417061,0.236075080115977,0.214558217610255,0.180070196856402,0.136883869983214,0.088814283534259,0.0611933465588279,0.0773691439035555,0.144513963070349,0.207233328246604,0.216084236227682,0.20189226308561,0.172440103769266,0.115214405615748,0.0575309018770028,0.0323515946894551,0.0587517167709445,0.11475660003052,0.134900045780558,0.101938043644132,0.0529528460247214,-0.00488325957576694,-0.0685182359224784,-0.109873340454754,-0.104684877155501,-0.0454753547993287,0.0126659545246451,0.0213642606439797,0.00976651915153354,-0.016023195482985,-0.0689760415077065,-0.122386693117656,-0.143598351899893,-0.112925377689608,-0.0489851976194111,-0.0164810010682131,-0.038913474744392,-0.0785899587974974,-0.124980924767282,-0.176102548451091,-0.205096902182207,-0.188463299252251,-0.119182054021059,-0.0517320311307799,-0.0393712803296201,-0.0524950404394935,-0.0766061345948422,-0.121165878223714,-0.163131390202961,-0.174271326110179,-0.137494277430185,-0.0674500228902794,-0.0273157332519458,-0.0430337250114452,-0.0741645048069588,-0.111246757210438,-0.157332519456737,-0.187700289943537,-0.177628567068518,-0.117198229818404,-0.0555470776743477,-0.0450175492141005,-0.0611933465588281,-0.0872882649168321,-0.131695406683962,-0.173660918663208,-0.185258660155654,-0.149702426369602,-0.0769113383183276,-0.0277735388371739,-0.0366244468182513,-0.0662292079963377,-0.103769265985045,-0.150618037540058,-0.182359224782542,-0.175034335418892,-0.117961239127117,-0.056462688844804,-0.0451701510758432,-0.0637875782084543,-0.0904929040134291,-0.132458415992675,-0.174118724248436,-0.189073706699222,-0.15748512131848,-0.0824050053410653,-0.0245688997405769,-0.0274683351136885,-0.056462688844804,-0.0953761635891959,-0.144056157485121,-0.177933770792004,-0.173966122386693,-0.120860674500229,-0.0610407446970854,-0.0509690218220663,-0.0744697085304442,-0.105447886464215,-0.14848161147566,-0.189836716007935,-0.204028689150008,-0.170914085151839,-0.0929345338013125,-0.0311307797955136,-0.0309781779337709,-0.0578361056004884,-0.0956813673126813,-0.146650389134748,-0.185258660155654,-0.185563863879139,-0.136426064397986,-0.0776743476270412,-0.0660766061345949,-0.0895772928429728,-0.121165878223714,-0.162826186479475,-0.203113077979551,-0.217457652983367,-0.186937280634824,-0.112620173966122,-0.0528002441629789,-0.0526476423012362,-0.0781321532122693,-0.115214405615749,-0.167404242331757,-0.209064550587517,-0.213490004578056,-0.167709446055242,-0.107584312528613,-0.0906455058751718,-0.11078895162521,-0.140241110941554,-0.180680604303373,-0.222340912559133,-0.240347932244773,-0.213490004578056,-0.13947810163284,-0.0756905234243859,-0.0692812452311919,-0.0877460705020602,-0.117350831680147,-0.162215779032504,-0.196703799786357,-0.195482984892416,-0.145276972379063,-0.077216542041813,-0.0479169845872121,-0.0587517167709447,-0.0819471997558371,-0.116893026094918,-0.154280482221883,-0.169388066534412,-0.143293148176408,-0.072943689913017,-0.0122081489394172,-0.00656188005493678,-0.0260949183580041,-0.0595147260796583,-0.112620173966122,-0.158553334350679,-0.168319853502213,-0.127269952693423,-0.0634823744849688,-0.0344880207538533,-0.0476117808637266,-0.0747749122539296,-0.113230581413093,-0.15580650083931,-0.176865557759805,-0.154585685945369,-0.0853044407141768,-0.0247215016023197,-0.019227834579582,-0.0375400579887076,-0.0682130321989929,-0.118571646574088,-0.164352205096902,-0.178696780100717,-0.146039981687777,-0.0891194872577447,-0.0653135968258814,-0.0872882649168321,-0.123912711735083,-0.170303677704868,-0.220662292079963,-0.251030062566763,-0.23958492293606,-0.180222798718144,-0.124980924767282,-0.119334655882802,-0.133679230886617,-0.160079352968106,-0.208606745002289,-0.254997710972074,-0.270563100869831,-0.238211506180375,-0.176407752174577,-0.142530138867694,-0.155348695254082,-0.18449565084694,-0.222798718144361,-0.265679841294064,-0.287654509385015,-0.267968869220205,-0.202350068670838,-0.141004120250267,-0.126812147108195,-0.129864184343049,-0.143598351899893,-0.18052800244163,-0.217762856706852,-0.228292385167099,-0.194109568136731,-0.129406378757821,-0.0926293300778271,-0.107279108805128,-0.138715092324126,-0.177323363345033,-0.222188310697391,-0.25026705325805,-0.238669311765604,-0.179764993132916,-0.122081489394171,-0.109873340454754,-0.117045627956661,-0.135815656951015,-0.176255150312834,-0.215473828780711,-0.226766366549672,-0.193193956966275,-0.12482832290554,-0.0796581718296964,-0.0892720891194874,-0.11979246146803,-0.159774149244621,-0.208301541278804,-0.24126354341523,-0.236075080115977,-0.184037845261712,-0.130169388066535,-0.120555470776744,-0.133221425301389,-0.158095528765451,-0.203418281703037,-0.245994201129254,-0.254692507248589,-0.208148939417061,-0.108652525560812,-0.0103769265985046,0.0460857622462993,0.0895772928429726,0.13215321226919,0.175186937280635,0.244468182511827,0.361819014191973,0.531054478864642,0.705020601251335,0.833663970700442,0.932244773386235,1.01083473218373,1.05463146650389,1.06577140241111,1.04486494735236,0.996795360903403,0.929650541736609,0.811689302609492,0.62429421638944,0.417060888142835,0.217610254845109,0.0326567984129405,-0.10911033114604,-0.182054021059057,-0.177323363345033,-0.143903555623379,-0.14680299099649,-0.179917594994659,-0.224324736761789,-0.282466046085762,-0.335113688386998,-0.354036319243095,-0.320158705936212,-0.235464672669007,-0.161452769723791,-0.147718602166947,-0.165267816267359,-0.19853502212727,-0.247062414161453,-0.283076453532733,-0.28063482374485,-0.227529375858386,-0.163283992064703,-0.145582176102549,-0.164352205096902,-0.192125743934076,-0.232565237295895,-0.274378147413399,-0.289333129864184,-0.256218525866016,-0.174423927971921,-0.10514268274073,-0.0964443766213949,-0.112009766519152,-0.138409888600641,-0.182511826644285,-0.218525866015565,-0.217762856706852,-0.165573019990844,-0.0994964138562491,-0.0822524034793226,-0.106363497634671,-0.135510453227529,-0.171219288875324,-0.209064550587517,-0.226461162826187,-0.200671448191668,-0.126964748969938,-0.0637875782084543,-0.0592095223561729,-0.077216542041813,-0.104684877155501,-0.150618037540058,-0.190599725316649,-0.195330383030673,-0.148176407752175,-0.0824050053410653,-0.0630245688997407,-0.0888142835342592,-0.122386693117656,-0.162673584617732,-0.204486494735236,-0.223103921867847,-0.196245994201129,-0.119182054021059,-0.0514268274072945,-0.0405920952235618,-0.0508164199603236,-0.0714176712955899,-0.11414619258355,-0.155501297115825,-0.1664886311613,-0.128185563863879,-0.0668396154433085,-0.0445597436288724,-0.0657714024111095,-0.0930871356630552,-0.126201739661224,-0.164657408820388,-0.182664428506028,-0.156416908286281,-0.0808789867236381,-0.0126659545246453,0.000457805585228029,-0.00534106516099507,-0.020296047611781,-0.0572256981535176,-0.0933923393865406,-0.100412025026705,-0.0598199298031437,0.00564626888448028,0.0334198077216541,0.0141919731420722,-0.0111399359072182,-0.0402868915000764,-0.0747749122539296,-0.0914085151838853,-0.0666870135815658,0.00808789867236369,0.0796581718296962,0.0994964138562489,0.101175034335419,0.0924767282160841,0.0579887074622309,0.0207538531970089,0.0114451396307034,0.0509690218220661,0.118724248435831,0.150312833816572,0.128643369449107,0.0936975431100258,0.0538684571951777,0.0112925377689607,-0.00808789867236391,0.0177018159621546,0.0953761635891957,0.169235464672669,0.189378910422707,0.188158095528765,0.175034335418892,0.136578666259728,0.0965969784831374,0.083473218373264,0.116282618647947,0.18052800244163,0.214100412025027,0.192888753242789,0.155959102701053,0.112772775827865,0.063787578208454,0.0346406226155958,0.04837479017244,0.111551960933923,0.171677094460552,0.17884938196246,0.161757973447276,0.13444224019533,0.0849992369906912,0.0340302151686249,0.0109873340454752,0.0352510300625666,0.0962917747596519,0.13215321226919,0.111399359072181,0.0726384861895314,0.0274683351136883,-0.0257897146345187,-0.0640927819319397,-0.0643979856554251,-0.0175492141004121,0.030825576072028,0.0303677704867998,0.00488325957576671,-0.0273157332519458,-0.0767587364565849,-0.126049137799481,-0.147718602166947,-0.1214710819472,-0.0531054478864643,-0.00412025026705337,-0.0132763619716162,-0.0444071417671297,-0.0849992369906914,-0.137646879291927,-0.176560354036319,-0.176560354036319,-0.125286128490768,-0.0671448191667939,-0.0579887074622311,-0.0773691439035557,-0.100717228750191,-0.137036471844957,-0.175034335418892,-0.189226308560965,-0.15916374179765,-0.084694033267206,-0.0250267053258051,-0.0254845109110332,-0.051121623683809,-0.0871356630550894,-0.136731268121471,-0.173660918663208,-0.171829696322295,-0.118876850297574,-0.0579887074622311,-0.0482221883106975,-0.0724858843277889,-0.100717228750191,-0.139172897909355,-0.178238974515489,-0.192125743934076,-0.159774149244621,-0.0810315885853808,-0.0172440103769267,-0.014954982450786,-0.0373874561269649,-0.0700442545399055,-0.118876850297574,-0.158553334350679,-0.161300167862048,-0.112162368380894,-0.0503586143750955,-0.0372348542652221,-0.0619563558675417,-0.0929345338013125,-0.13383183274836,-0.175949946589348,-0.19288875324279,-0.162826186479475,-0.0845414314054632,-0.0189226308560966,-0.0129711582481307,-0.0286891500076302,-0.0540210590569206,-0.0993438119945064,-0.139783305356325,-0.146955592858233,-0.104532275293759,-0.0471539752784985,-0.0363192430947659,-0.0643979856554251,-0.0940027468335115,-0.129253776896078,-0.16816725164047,-0.186479475049596,-0.160231954829849,-0.0839310239584924,-0.0178544178238976,-0.0105295284602473,-0.0238058904318634,-0.0453227529375859,-0.0882038760872884,-0.129558980619564,-0.140088509079811,-0.10178544178239,-0.044254539905387,-0.0294521593163438,-0.0560048832595759,-0.0860674500228904,-0.120097665191515,-0.158248130627194,-0.178391576377232,-0.157179917594995,-0.0863726537463758,-0.0219746680909508,-0.0112925377689609,-0.0198382420265528,-0.0386082710209066,-0.0810315885853808,-0.123607508011598,-0.136731268121471,-0.102395849229361,-0.0444071417671297,-0.0236532885701207,-0.0462383641080422,-0.0749275141156723,-0.108652525560812,-0.148176407752175,-0.169082862810926,-0.147108194719976,-0.0755379215626432,-0.0105295284602473,0.00122081489394159,-0.00366244468182523,-0.0184648252708684,-0.0592095223561729,-0.100869830611934,-0.112162368380894,-0.0724858843277889,-0.00305203723485438,0.0320463909659697,0.019075232717839,-0.00457805585228151,-0.0350984282008242,-0.0711124675721045,-0.0874408667785748,-0.0630245688997407,0.00808789867236369,0.072333282466046,0.0831680146497786,0.0750801159774148,0.0575309018770028,0.0154127880360139,-0.0303677704868,-0.0508164199603236,-0.0244162978788342,0.0350984282008239,0.0657714024111093,0.0453227529375857,0.0115977414924461,-0.0273157332519458,-0.0701968564016482,-0.0923241263543416,-0.0732488936365025,-0.00610407446970864,0.0567678925682892,0.0671448191667937,0.0560048832595757,0.0343354188921104,-0.0102243247367619,-0.0563100869830613,-0.0747749122539296,-0.0456279566610714,0.0173966122386692,0.0520372348542651,0.0326567984129405,-0.00137341675568453,-0.0425759194262171,-0.0915611170456281,-0.121623683808943,-0.110483747901725,-0.0497482069281246,0.00946131542804811,0.0137341675568441,-0.00717228750190763,-0.0337250114451397,-0.0763009308713567,-0.119182054021059,-0.135205249504044,-0.104227071570273,-0.0354036319243096,0.00732488936365012,-0.00717228750190763,-0.0379978635739357,-0.0732488936365025,-0.117045627956661,-0.144819166793835,-0.133374027163131,-0.0738593010834733,-0.0135815656951016,-0.00778269494887849,-0.0309781779337709,-0.0590569204944301,-0.101632839920647,-0.143903555623379,-0.158095528765451,-0.123454906149855,-0.0463909659697849,0.00854570425759183,0.00122081489394159,-0.0271631313902031,-0.0627193651762553,-0.109568136731268,-0.141767129558981,-0.133374027163131,-0.0727910880512743,-0.00778269494887849,0.000763009308713455,-0.0241110941553488,-0.0518846329925226,-0.0906455058751718,-0.130627193651763,-0.144666564932092,-0.110331146039982,-0.0286891500076302,0.0358614375095375,0.0372348542652219,0.0152601861742712,-0.0154127880360142,-0.062871967037998,-0.103158858538074,-0.107736914390356,-0.0599725316648864,-0.00274683351136895,0.000763009308713455,-0.0317411872424845,-0.0648557912406532,-0.103769265985045,-0.142224935144209,-0.152907065466199,-0.110178544178239,-0.00946131542804833,0.0894246909812298,0.139172897909354,0.178086372653746,0.222646116282619,0.266137646879292,0.330535632534717,0.438272546925072,0.600183122234091,0.774301846482527,0.896993743323668,0.978940943079505,1.05417366091866,1.11689302609492,1.1632839920647,1.1936517625515,1.19945063329773,1.17472913169541,1.07797955135053,0.89088966885396,0.677552266137647,0.468640317411872,0.263543415229666,0.0906455058751716,-0.0183122234091257,-0.0460857622462995,-0.0308255760720282,-0.044254539905387,-0.0897298947047155,-0.134594842057073,-0.182511826644285,-0.231039218678468,-0.255302914695559,-0.231344422401953,-0.152296658019228,-0.0781321532122693,-0.0607355409736,-0.0634823744849688,-0.0755379215626432,-0.111551960933923,-0.150007630093087,-0.159621547382878,-0.118571646574088,-0.056462688844804,-0.0404394933618191,-0.0701968564016482,-0.10346406226156,-0.14115672211201,-0.184037845261712,-0.206775522661377,-0.18449565084694,-0.109568136731268,-0.039981687776591,-0.0259423164962614,-0.0308255760720282,-0.0447123454906151,-0.0834732183732643,-0.124980924767282,-0.137646879291927,-0.100412025026705,-0.038913474744392,-0.0206012513352664,-0.0517320311307799,-0.0883564779490311,-0.126201739661224,-0.167862047916985,-0.191057530901877,-0.172134900045781,-0.101632839920647,-0.0344880207538533,-0.0199908438882955,-0.0215168625057227,-0.031435983518999,-0.0686708377842211,-0.111246757210438,-0.127727758278651,-0.0956813673126813,-0.0352510300625669,-0.01068213032199,-0.0350984282008242,-0.0662292079963377,-0.100412025026705,-0.141614527697238,-0.165115214405616,-0.145276972379063,-0.0723332824660462,-0.00244162978788352,0.0120555470776742,0.00595147260796571,-0.00763009308713577,-0.0451701510758432,-0.0871356630550894,-0.104990080878987,-0.0770639401800703,-0.0175492141004121,0.00900350984281997,-0.016023195482985,-0.0491377994811538,-0.0853044407141768,-0.129558980619564,-0.155959102701053,-0.138257286738898,-0.0668396154433085,0.004730657714024,0.0198382420265526,0.00900350984281997,-0.0100717228750192,-0.0523424385777508,-0.0976651915153366,-0.11246757210438,-0.075080115977415,-0.000457805585228251,0.046238364108042,0.0367770486799938,0.0128185563863878,-0.0141919731420724,-0.0471539752784985,-0.0613459484205708,-0.0323515946894553,0.0474591790019837,0.124370517320311,0.141004120250267,0.126812147108195,0.106973905081642,0.0735540973599877,0.0421181138409887,0.0384556691591636,0.0820998016175796,0.163741797649931,0.217457652983366,0.208606745002289,0.181596215473829,0.150770639401801,0.111857164657409,0.0885090798107736,0.105142682740729,0.17152449259881,0.239432321074317,0.250419655119792,0.230276209369754,0.208301541278803,0.175186937280635,0.141004120250267,0.131695406683961,0.168014649778727,0.246604608576225,0.303219899282771,0.297421028536548,0.271478712040287,0.239279719212574,0.192888753242789,0.155196093392339,0.152144056157485,0.196703799786357,0.246757210437967,0.245536395544026,0.212726995269342,0.17717076148329,0.131237601098733,0.0822524034793223,0.0543262627804058,0.0697390508164198,0.131542804822219,0.18052800244163,0.170761483290096,0.138104684877155,0.0962917747596519,0.0379978635739355,-0.012818556386388,-0.0303677704868,0.000763009308713455,0.0439493361819013,0.0413551045322752,0.00595147260796571,-0.0308255760720282,-0.0749275141156723,-0.119945063329773,-0.141919731420723,-0.119639859606287,-0.0509690218220663,0.00595147260796571,0.00610407446970842,-0.0143445750038152,-0.0434915305966734,-0.0903403021516864,-0.131390202960476,-0.138562490462384,-0.0967495803448803,-0.0396764840531056,-0.0254845109110332,-0.0466961696932704,-0.0717228750190753,-0.10514268274073,-0.142530138867694,-0.160079352968106,-0.135205249504044,-0.0633297726232261,-0.00244162978788352,0.000763009308713455,-0.0158705936212423,-0.0395238821913628,-0.0807263848618954,-0.117808637265375,-0.124370517320311,-0.0842362276819778,-0.0280787425606593,-0.0164810010682131,-0.0459331603845568,-0.0784373569357547,-0.114603998168778,-0.153059667327941,-0.171371890737067,-0.148329009613917,-0.0778269494887839,-0.0163283992064704,-0.0100717228750192,-0.0212116587822373,-0.0393712803296201,-0.0792003662444683,-0.118876850297574,-0.129864184343049,-0.0929345338013125,-0.0341828170303679,-0.0166336029299559,-0.0436441324584161,-0.0741645048069588,-0.107126506943385,-0.144666564932092,-0.163741797649931,-0.139783305356325,-0.0657714024111095,0.000305203723485315,0.010071722875019,0.000305203723485315,-0.0175492141004121,-0.0587517167709447,-0.101480238058904,-0.116587822371433,-0.083625820235007,-0.0238058904318634,-0.00167862047916996,-0.0270105295284604,-0.0581413093239739,-0.0903403021516864,-0.125591332214253,-0.142682740729437,-0.120402868915001,-0.0506638180985809,0.0125133526629024,0.0230428811231496,0.0160231954829848,-0.000305203723485538,-0.042118113840989,-0.0853044407141768,-0.0999542194414773,-0.0669922173050512,-0.00549366702273779,0.020143445750038,-0.00473065771402422,-0.0355562337860523,-0.0669922173050512,-0.106668701358157,-0.13215321226919,-0.118419044712346,-0.0556996795360904,0.00320463909659687,0.0093087135663054,-0.00305203723485438,-0.020296047611781,-0.0582939111857166,-0.0999542194414773,-0.117656035403632,-0.0889668853960019,-0.0259423164962614,0.00671448191667927,-0.013886769418587,-0.0436441324584161,-0.0746223103921869,-0.113993590721807,-0.139935907218068,-0.128948573172593,-0.0695864489546774,-0.0109873340454755,-0.00579887074622321,-0.0233480848466352,-0.043186326873188,-0.0788951625209829,-0.115824813062719,-0.128338165725622,-0.0962917747596522,-0.0271631313902031,0.0161757973447275,0.00427285212879586,-0.0187700289943538,-0.0439493361819015,-0.0799633755531819,-0.10514268274073,-0.0940027468335115,-0.0329620021364262,0.0311307797955134,0.0431863268731877,0.0296047611780863,0.0163283992064702,-0.0100717228750192,-0.0415077063940181,-0.0526476423012362,-0.0204486494735237,0.0532580497482068,0.107736914390355,0.102701052952846,0.0781321532122691,0.0468487715550129,0.00167862047916973,-0.0344880207538533,-0.0370822524034794,0.00732488936365012,0.0581413093239736,0.0621089577292842,0.0393712803296199,0.0151075843125285,-0.020296047611781,-0.057530901877003,-0.0717228750190753,-0.0415077063940181,0.0343354188921104,0.0959865710361665,0.0969021822066228,0.074469708530444,0.0439493361819013,-0.00244162978788352,-0.0418129101175035,-0.0486799938959256,-0.00824050053410663,0.0405920952235616,0.0407446970853043,0.00778269494887826,-0.0260949183580041,-0.0665344117198231,-0.107126506943385,-0.125591332214253,-0.101938043644133,-0.0334198077216543,0.0210590569204943,0.0167862047916983,-0.00824050053410663,-0.0419655119792463,-0.0929345338013125,-0.137036471844957,-0.14848161147566,-0.111399359072181,-0.0593621242179156,-0.0512742255455518,-0.0764535327330994,-0.101327636197162,-0.133526629024874,-0.171371890737067,-0.190599725316649,-0.168014649778727,-0.0984282008240502,-0.0383030672974211,-0.0332672058599116,-0.0466961696932704,-0.0688234396459638,-0.111246757210438,-0.151228444987029,-0.162826186479475,-0.127727758278651,-0.0730962917747598,-0.058599114909202,-0.0834732183732643,-0.114298794445292,-0.151381046848772,-0.190599725316649,-0.209980161757974,-0.188310697390508,-0.120860674500229,-0.0624141614527698,-0.0570730962917749,-0.0689760415077065,-0.0888142835342592,-0.130016786204792,-0.170456279566611,-0.181748817335572,-0.145734777964291,-0.0874408667785748,-0.0663818098580804,-0.085762246299405,-0.109415534869526,-0.138715092324126,-0.172592705631009,-0.187395086220052,-0.163589195788189,-0.0973599877918512,-0.0425759194262171,-0.0413551045322754,-0.0569204944300322,-0.0802685792766673,-0.125743934075996,-0.17152449259881,-0.190294521593164,-0.161910575309019,-0.100869830611934,-0.0607355409736,-0.0518846329925226,-0.0390660766061347,-0.0178544178238976,0.0166336029299556,0.088814283534259,0.211658782237143,0.38638791393255,0.56188005493667,0.69067602624752,0.798870746223104,0.891805280024416,0.956661071265069,1.01602319548298,1.09278193193957,1.18968411414619,1.26522203570884,1.2429421638944,1.10560048832596,0.906455058751717,0.67602624752022,0.439645963680757,0.23958492293606,0.103311460399817,0.0415077063940179,0.00793529681062098,-0.0425759194262171,-0.0834732183732643,-0.115977414924462,-0.163741797649931,-0.212269189684114,-0.23454906149855,-0.210437967343202,-0.151381046848772,-0.116130016786205,-0.125591332214253,-0.139783305356325,-0.154433084083626,-0.177628567068518,-0.190141919731421,-0.174729131695407,-0.121013276361972,-0.0709598657103618,-0.0683656340607356,-0.0824050053410653,-0.0978177933770793,-0.129406378757821,-0.16481001068213,-0.181443613612086,-0.158095528765451,-0.099038608271021,-0.0622615595910271,-0.0756905234243859,-0.0987334045475356,-0.122386693117656,-0.15351747291317,-0.172134900045781,-0.15916374179765,-0.104837479017244,-0.0520372348542653,-0.0502060125133528,-0.0698916526781628,-0.0869830611933467,-0.115519609339234,-0.146192583549519,-0.155959102701053,-0.125286128490768,-0.0572256981535176,-0.00991912101327647,-0.0196856401648101,-0.0460857622462995,-0.0759957271478713,-0.115367007477491,-0.141614527697238,-0.133679230886617,-0.0807263848618954,-0.0242636960170915,-0.0173966122386694,-0.0361666412330231,-0.0541736609186633,-0.0830154127880361,-0.116740424233176,-0.131848008545704,-0.106363497634671,-0.0372348542652221,0.0192278345795818,0.0195330383030672,0.00183122234091245,-0.020296047611781,-0.0566152907065467,-0.085762246299405,-0.0840836258202351,-0.0360140393712804,0.0198382420265526,0.0248741034640621,-0.00198382420265538,-0.0259423164962614,-0.0541736609186633,-0.0831680146497788,-0.0917137189073708,-0.059667327941401,0.0169388066534411,0.0787425606592399,0.081336792308866,0.0679078284755073,0.0518846329925224,0.0187700289943536,-0.0100717228750192,-0.00778269494887849,0.0415077063940179,0.0999542194414771,0.106210895772928,0.0758431252861284,0.0500534106516098,0.0224324736761787,-0.00763009308713577,-0.0186174271326111,0.0128185563863878,0.0921715244925987,0.159621547382878,0.168625057225698,0.16084236227682,0.14848161147566,0.117198229818404,0.0880512742255454,0.0878986723638027,0.134900045780558,0.197466809095071,0.21318480085457,0.189836716007935,0.168777659087441,0.145276972379063,0.115977414924462,0.101632839920647,0.126506943384709,0.20021364260644,0.265832443155806,0.276209369754311,0.27056310086983,0.258507553792156,0.223409125591332,0.186632076911338,0.176865557759805,0.214558217610255,0.272699526934228,0.288264916831985,