0.215626430642454,0.314054631466504,0.426369601709141,0.550282313444224,0.681062108957729,0.813367923088661,0.944605524187395,1.07340149549824,1.19868762398901,1.3140546314665,1.39645963680757,1.41217762856707,1.34304898519762,1.19960323515947,1.00824050053411,0.796123912711735,0.585838547230276,0.393102395849229,0.229665801922783,0.102548451091103,0.0129711582481305,-0.0439493361819015,-0.0773691439035557,-0.0978177933770793,-0.113840988860064,-0.13047459179002,-0.148329009613917,-0.163741797649931,-0.172897909354494,-0.17381352052495,-0.167251640470014,-0.155501297115825,-0.142987944452922,-0.13444224019533,-0.131695406683962,-0.133526629024874,-0.136731268121471,-0.137341675568442,-0.133984434610102,-0.127880360140394,-0.1214710819472,-0.117656035403632,-0.11811384098886,-0.122691896841142,-0.129558980619564,-0.135663055089272,-0.137952083015413,-0.136273462536243,-0.131695406683962,-0.126506943384709,-0.123454906149855,-0.12314970242637,-0.12543873035251,-0.129101175034336,-0.131084999236991,-0.129558980619564,-0.124980924767282,-0.118876850297574,-0.113077979551351,-0.10911033114604,-0.108042118113841,-0.108805127422555,-0.110178544178239,-0.11078895162521,-0.109568136731268,-0.106821303219899,-0.103616664123302,-0.101632839920647,-0.101938043644133,-0.104074469708531,-0.1057530901877,-0.105600488325958,-0.103158858538074,-0.099038608271021,-0.0940027468335115,-0.0898824965664582,-0.0872882649168321,-0.0869830611933467,-0.0882038760872884,-0.0889668853960019,-0.0875934686403175,-0.0840836258202351,-0.0792003662444683,-0.0743171066687015,-0.0698916526781628,-0.0662292079963377,-0.062871967037998,-0.059667327941401,-0.0561574851213186,-0.052189836716008,-0.0476117808637266,-0.0422707157027317,-0.0370822524034794,-0.0329620021364262,-0.0300625667633146,-0.0279261406989166,-0.0256371127727759,-0.0221272699526935,-0.0175492141004121,-0.0123607508011599,-0.00671448191667949,-0.00122081489394182,0.00335724095833958,0.00671448191667927,0.0093087135663054,0.0125133526629024,0.0170914085151838,0.0227376773996642,0.0292995574546008,0.0363192430947656,0.0436441324584159,0.0506638180985807,0.0573783000152601,0.0639401800701967,0.070196856401648,0.0758431252861284,0.0810315885853806,0.0862200518846329,0.0915611170456278,0.0970547840683655,0.102090645505875,0.106363497634671,0.111246757210438,0.117198229818404,0.124217915458568,0.131848008545704,0.139325499771097,0.146039981687776,0.151838852434,0.156416908286281,0.160689760415077,0.165420418129101,0.170914085151839,0.177018159621547,0.18281703036777,0.187700289943537,0.191057530901877,0.193193956966275,0.194414771860217,0.195788188615901,0.197924614680299,0.200518846329925,0.203113077979551,0.205249504043949,0.206317717076148,0.206012513352663,0.205096902182206,0.204028689150007,0.202960476117809,0.201587059362124,0.199450633297726,0.196551197924615,0.192278345795819,0.185716465740882,0.176712955898062,0.165878223714329,0.154433084083626,0.143140546314665,0.132305814130932,0.121318480085457,0.109262933007783,0.0962917747596519,0.0831680146497786,0.0703494582633907,0.0579887074622309,0.046238364108042,0.0354036319243094,0.0250267053258049,0.0157179917594994,0.00778269494887826,0.000305203723485315,-0.00732488936365035,-0.0157179917594996,-0.0241110941553488,-0.0318937891042272,-0.0384556691591638,-0.0445597436288724,-0.0503586143750955,-0.0555470776743477,-0.059667327941401,-0.0631771707614834,-0.0662292079963377,-0.0683656340607356,-0.0698916526781628,-0.0711124675721045,-0.0720280787425608,-0.0721806806043035,-0.0721806806043035,-0.0726384861895316,-0.0735540973599879,-0.0746223103921869,-0.0755379215626432,-0.076148329009614,-0.0763009308713567,-0.0764535327330994,-0.0769113383183276,-0.0773691439035557,-0.077216542041813,-0.0769113383183276,-0.0759957271478713,-0.0747749122539296,-0.0730962917747598,-0.0714176712955899,-0.0706546619868764,-0.0712650694338472,-0.0726384861895316,-0.074011902945216,-0.0746223103921869,-0.0743171066687015,-0.0738593010834733,-0.0732488936365025,-0.072943689913017,-0.0734014954982452,-0.0746223103921869,-0.0763009308713567,-0.0779795513505266,-0.079352968106211,-0.0799633755531819,-0.08042118113841,-0.0810315885853808,-0.0819471997558371,-0.0822524034793226,-0.0822524034793226,-0.0822524034793226,-0.0817945978940944,-0.0808789867236381,-0.0795055699679537,-0.0775217457652984,-0.0752327178391577,-0.0737066992217306,-0.0723332824660462,-0.0709598657103618,-0.0697390508164201,-0.0688234396459638,-0.0683656340607356,-0.0682130321989929,-0.0683656340607356,-0.0689760415077065,-0.0694338470929346,-0.0694338470929346,-0.0689760415077065,-0.0680604303372502,-0.0668396154433085,-0.0660766061345949,-0.0660766061345949,-0.0662292079963377,-0.0659240042728522,-0.0654661986876241,-0.0653135968258814,-0.0653135968258814,-0.0656188005493668,-0.0656188005493668,-0.0651609949641387,-0.0653135968258814,-0.0660766061345949,-0.0669922173050512,-0.0677552266137648,-0.0682130321989929,-0.0680604303372502,-0.0674500228902794,-0.0674500228902794,-0.0674500228902794,-0.0674500228902794,-0.0676026247520221,-0.0674500228902794,-0.0671448191667939,-0.0666870135815658,-0.0660766061345949,-0.0653135968258814,-0.0643979856554251,-0.0634823744849688,-0.062871967037998,-0.0619563558675417,-0.0607355409736,-0.0593621242179156,-0.0573783000152603,-0.0535632534716925,-0.0477643827254694,-0.0401342896383337,-0.0321989928277126,-0.0238058904318634,-0.0151075843125287,-0.00686708377842221,0.000152601861742602,0.00610407446970842,0.0106821303219898,0.0134289638333587,0.0143445750038149,0.0137341675568441,0.0123607508011597,0.0103769265985044,0.00732488936365012,0.00396764840531043,0.00137341675568431,0.000763009308713455,0.00259423164962601,0.00518846329925214,0.00717228750190741,0.00854570425759183,0.00961391728979082,0.0106821303219898,0.0119029452159315,0.0132763619716159,0.0141919731420722,0.0137341675568441,0.011139935907218,0.00625667633145113,-1.11022302462516e-16,-0.00579887074622321,-0.0105295284602473,-0.014954982450786,-0.0198382420265528,-0.0241110941553488,-0.0277735388371739,-0.0315885853807418,-0.0364718449565086,-0.0424233175644744,-0.0486799938959256,-0.0552418739508623,-0.0622615595910271,-0.0698916526781628,-0.0778269494887839,-0.0854570425759195,-0.0912559133221426,-0.094765756142225,-0.0965969784831376,-0.0970547840683657,-0.0975125896535939,-0.0984282008240502,-0.0996490157179919,-0.101022432473676,-0.101480238058904,-0.100717228750191,-0.0993438119945064,-0.0976651915153366,-0.0959865710361667,-0.0950709598657105,-0.0949183580039678,-0.0952235617274532,-0.0961391728979095,-0.0972073859301085,-0.0976651915153366,-0.0976651915153366,-0.0970547840683657,-0.0964443766213949,-0.095833969174424,-0.0949183580039678,-0.0938501449717688,-0.0926293300778271,-0.0917137189073708,-0.0907981077369145,-0.0897298947047155,-0.0886616816725165,-0.0871356630550894,-0.0853044407141768,-0.0834732183732643,-0.0822524034793226,-0.0813367923088663,-0.08042118113841,-0.0795055699679537,-0.0787425606592402,-0.0778269494887839,-0.0767587364565849,-0.0749275141156723,-0.0727910880512743,-0.0706546619868764,-0.0691286433694492,-0.0682130321989929,-0.0674500228902794,-0.0666870135815658,-0.0656188005493668,-0.0645505875171678,-0.0631771707614834,-0.0625667633145125,-0.062871967037998,-0.0643979856554251,-0.0666870135815658,-0.0692812452311919,-0.0720280787425608,-0.0747749122539296,-0.0773691439035557,-0.0796581718296964,-0.0788951625209829,-0.0703494582633909,-0.0499008087898673,-0.0143445750038152,0.0376926598504501,0.105600488325957,0.189073706699222,0.289180528002441,0.40439493361819,0.532580497482069,0.669006561880055,0.807721654204181,0.944605524187395,1.07767434762704,1.20494430032046,1.32031130779795,1.40210590569205,1.41416145276972,1.33572409583397,1.18037540057989,0.980161757973447,0.764230123607508,0.554249961849534,0.364413245841599,0.204333892873493,0.0805737830001525,-0.00518846329925236,-0.0584465130474593,-0.0891194872577447,-0.108499923699069,-0.125591332214253,-0.145429574240806,-0.166946436746528,-0.185563863879139,-0.196703799786357,-0.198077216542042,-0.19121013276362,-0.179307187547688,-0.1664886311613,-0.157637723180223,-0.154585685945369,-0.156111704562796,-0.159316343659393,-0.161147566000305,-0.159468945521135,-0.154280482221883,-0.147871204028689,-0.142987944452922,-0.141614527697238,-0.144056157485121,-0.14848161147566,-0.152601861742713,-0.153822676636655,-0.150923241263544,-0.144361361208607,-0.136731268121471,-0.131084999236991,-0.129558980619564,-0.131390202960476,-0.133984434610102,-0.135663055089272,-0.135357851365787,-0.132458415992675,-0.128032962002137,-0.123607508011598,-0.121318480085457,-0.121623683808943,-0.123302304288112,-0.124523119182054,-0.124065313596826,-0.121776285670685,-0.11811384098886,-0.114298794445292,-0.112009766519152,-0.112009766519152,-0.11414619258355,-0.116587822371433,-0.117656035403632,-0.116130016786205,-0.112162368380894,-0.106668701358157,-0.10178544178239,-0.099038608271021,-0.0996490157179919,-0.102395849229361,-0.104990080878987,-0.105905692049443,-0.103921867846788,-0.0993438119945064,-0.0940027468335115,-0.0895772928429728,-0.0872882649168321,-0.0862200518846331,-0.085762246299405,-0.0845414314054632,-0.0822524034793226,-0.0787425606592402,-0.0741645048069588,-0.0691286433694492,-0.063940180070197,-0.0595147260796583,-0.0563100869830613,-0.0537158553334352,-0.0508164199603236,-0.0468487715550131,-0.0422707157027317,-0.0375400579887076,-0.0331146039981689,-0.0292995574546011,-0.0260949183580041,-0.0228902792614071,-0.0190752327178393,-0.0141919731420724,-0.00869830611933477,-0.0021364260643981,0.00488325957576671,0.0123607508011597,0.0195330383030672,0.0260949183580039,0.0325041965511978,0.0390660766061345,0.0460857622462993,0.0531054478864641,0.0599725316648862,0.0660766061345947,0.0717228750190751,0.0767587364565847,0.0811841904471233,0.0854570425759193,0.0901877002899434,0.0953761635891957,0.101175034335419,0.107279108805127,0.113535785136579,0.119334655882802,0.124217915458568,0.128338165725622,0.133068823439646,0.138867694185869,0.14512437051732,0.150618037540058,0.155043491530597,0.158553334350679,0.161300167862048,0.163436593926446,0.165115214405616,0.166946436746528,0.168472455363955,0.169235464672669,0.169540668396154,0.169388066534412,0.168777659087441,0.167556844193499,0.166030825576072,0.164352205096902,0.162673584617732,0.160231954829849,0.156722112009766,0.15244925988097,0.147566000305204,0.141614527697238,0.133984434610102,0.124675721043797,0.113840988860064,0.102090645505875,0.0903403021516861,0.0782847550740118,0.0660766061345947,0.0534106516099495,0.0407446970853043,0.0280787425606591,0.0163283992064702,0.00579887074622299,-0.00396764840531066,-0.0134289638333589,-0.0222798718144362,-0.0305203723485428,-0.0384556691591638,-0.0460857622462995,-0.0534106516099497,-0.0599725316648864,-0.065008393102396,-0.0680604303372502,-0.0695864489546774,-0.0706546619868764,-0.0715702731573326,-0.0727910880512743,-0.0741645048069588,-0.0752327178391577,-0.0764535327330994,-0.0778269494887839,-0.0790477643827256,-0.0798107736914391,-0.0805737830001527,-0.0813367923088663,-0.0816419960323517,-0.0813367923088663,-0.0802685792766673,-0.0779795513505266,-0.0752327178391577,-0.072943689913017,-0.0717228750190753,-0.0714176712955899,-0.0715702731573326,-0.0717228750190753,-0.0711124675721045,-0.0700442545399055,-0.0689760415077065,-0.0682130321989929,-0.0677552266137648,-0.0674500228902794,-0.0671448191667939,-0.0674500228902794,-0.0683656340607356,-0.0691286433694492,-0.0694338470929346,-0.0691286433694492,-0.0680604303372502,-0.0668396154433085,-0.0656188005493668,-0.0647031893789105,-0.0640927819319397,-0.0643979856554251,-0.0657714024111095,-0.0679078284755075,-0.0695864489546774,-0.0705020601251336,-0.0709598657103618,-0.0711124675721045,-0.0709598657103618,-0.0709598657103618,-0.0706546619868764,-0.0700442545399055,-0.0691286433694492,-0.0676026247520221,-0.0651609949641387,-0.0624141614527698,-0.0601251335266291,-0.0587517167709447,-0.0582939111857166,-0.058599114909202,-0.0587517167709447,-0.0590569204944301,-0.0593621242179156,-0.0605829391118573,-0.0625667633145125,-0.0647031893789105,-0.0660766061345949,-0.0663818098580804,-0.0660766061345949,-0.0654661986876241,-0.0642453837936824,-0.0624141614527698,-0.0602777353883718,-0.0581413093239739,-0.0556996795360904,-0.0528002441629789,-0.0497482069281246,-0.0471539752784985,-0.0456279566610714,-0.0445597436288724,-0.0436441324584161,-0.0430337250114452,-0.0433389287349307,-0.044254539905387,-0.0454753547993287,-0.0459331603845568,-0.0445597436288724,-0.0415077063940181,-0.0370822524034794,-0.0305203723485428,-0.0215168625057227,-0.0109873340454755,-0.000305203723485538,0.00869830611933455,0.0155653898977566,0.0198382420265526,0.0219746680909506,0.022279871814436,0.0215168625057225,0.0202960476117808,0.0187700289943536,0.0163283992064702,0.0131237601098732,0.0103769265985044,0.00869830611933455,0.0082405005341064,0.00808789867236369,0.0082405005341064,0.00869830611933455,0.00976651915153354,0.011139935907218,0.0131237601098732,0.0151075843125285,0.0166336029299556,0.0167862047916983,0.0152601861742712,0.0117503433541888,0.0070196856401647,0.00198382420265516,-0.00274683351136895,-0.0079352968106212,-0.0146497787273006,-0.0222798718144362,-0.0302151686250573,-0.0383030672974211,-0.0459331603845568,-0.0528002441629789,-0.0589043186326874,-0.0643979856554251,-0.0695864489546774,-0.0747749122539296,-0.0801159774149246,-0.0854570425759195,-0.0909507095986572,-0.095833969174424,-0.0998016175797346,-0.102395849229361,-0.103921867846788,-0.105295284602472,-0.106363497634671,-0.106516099496414,-0.106363497634671,-0.106516099496414,-0.107736914390356,-0.109873340454754,-0.112162368380894,-0.114298794445292,-0.115977414924462,-0.117350831680147,-0.118724248435831,-0.120097665191515,-0.120860674500229,-0.120860674500229,-0.120250267053258,-0.119029452159316,-0.117045627956661,-0.114451396307035,-0.110941553486953,-0.10743171066687,-0.104074469708531,-0.100869830611934,-0.0978177933770793,-0.0956813673126813,-0.0944605524187396,-0.0935449412482833,-0.0933923393865406,-0.0932397375247979,-0.0924767282160843,-0.0918663207691135,-0.0915611170456281,-0.0917137189073708,-0.0921715244925989,-0.0924767282160843,-0.0924767282160843,-0.0918663207691135,-0.0900350984282009,-0.0874408667785748,-0.0848466351289487,-0.0828628109262934,-0.0816419960323517,-0.08042118113841,-0.0785899587974974,-0.076148329009614,-0.0732488936365025,-0.0711124675721045,-0.0703494582633909,-0.0714176712955899,-0.0744697085304442,-0.0788951625209829,-0.0833206165115215,-0.0869830611933467,-0.0895772928429728,-0.0917137189073708,-0.0921715244925989,-0.086830459331604,-0.0709598657103618,-0.0405920952235618,0.00625667633145113,0.0697390508164198,0.15016023195483,0.247520219746681,0.359682588127575,0.484358309171372,0.618342743781474,0.755989623073401,0.893636502365329,1.03006256676331,1.16343659392645,1.2890279261407,1.39218678467877,1.44254539905387,1.40973599877919,1.29040134289638,1.10727910880513,0.889516252098275,0.662902487410346,0.448191667938349,0.260186174271326,0.108042118113841,-0.00396764840531066,-0.0778269494887839,-0.121013276361972,-0.144361361208607,-0.159011139935907,-0.172287501907523,-0.186632076911338,-0.20021364260644,-0.210132763619716,-0.213947810163284,-0.210590569204944,-0.200671448191668,-0.187547688081795,-0.175644742865863,-0.168777659087441,-0.167709446055242,-0.169998473981383,-0.172440103769266,-0.171829696322295,-0.167099038608271,-0.159774149244621,-0.152449259880971,-0.148329009613917,-0.149397222646116,-0.154890889668854,-0.161452769723791,-0.165878223714329,-0.166030825576072,-0.162063177170762,-0.15580650083931,-0.149702426369602,-0.145887379826034,-0.145276972379063,-0.147260796581718,-0.149702426369602,-0.150312833816573,-0.147718602166947,-0.143140546314665,-0.138562490462384,-0.135968258812758,-0.136273462536243,-0.138867694185869,-0.141767129558981,-0.143140546314665,-0.141919731420723,-0.137952083015413,-0.132458415992675,-0.127422554555166,-0.124065313596826,-0.122386693117656,-0.122234091255913,-0.122081489394171,-0.120708072638486,-0.117503433541889,-0.113230581413093,-0.108805127422555,-0.105447886464215,-0.103769265985045,-0.104379673432016,-0.106210895772929,-0.107584312528613,-0.107126506943385,-0.104837479017244,-0.100869830611934,-0.0959865710361667,-0.0915611170456281,-0.0882038760872884,-0.0862200518846331,-0.084694033267206,-0.082557607202808,-0.0792003662444683,-0.0743171066687015,-0.0686708377842211,-0.0636349763467115,-0.0598199298031437,-0.0569204944300322,-0.054326262780406,-0.051121623683809,-0.0468487715550131,-0.0418129101175035,-0.0366244468182513,-0.0320463909659699,-0.0282313444224021,-0.0250267053258051,-0.0216694643674654,-0.0173966122386694,-0.0119029452159317,-0.0056462688844805,0.000915611170456168,0.00793529681062098,0.0152601861742712,0.0225850755379215,0.029757363039829,0.0366244468182511,0.0436441324584159,0.0512742255455515,0.0598199298031435,0.0694338470929344,0.0787425606592399,0.0871356630550892,0.0944605524187394,0.101175034335419,0.107584312528613,0.114451396307035,0.121928887532428,0.129711582481306,0.137189073706699,0.143598351899893,0.14848161147566,0.152754463604456,0.156874713871509,0.161605371585533,0.1664886311613,0.171219288875324,0.176102548451091,0.181138409888601,0.186021669464367,0.190294521593163,0.193956966274988,0.1968564016481,0.198992827712498,0.200976651915153,0.202655272394323,0.203876087288265,0.204028689150007,0.202655272394323,0.199908438882954,0.195940790477644,0.19121013276362,0.18617427132611,0.180680604303372,0.17381352052495,0.165573019990844,0.156111704562796,0.145582176102548,0.133831832748359,0.120555470776743,0.106516099496414,0.092018922630856,0.0776743476270409,0.0634823744849686,0.0497482069281244,0.0361666412330229,0.0225850755379215,0.0093087135663054,-0.00350984282008252,-0.0158705936212423,-0.0276209369754312,-0.0387608728826493,-0.0492904013428965,-0.0590569204944301,-0.0682130321989929,-0.0766061345948422,-0.0845414314054632,-0.0920189226308562,-0.0985808026857929,-0.104074469708531,-0.107889516252098,-0.110178544178239,-0.111399359072181,-0.112162368380894,-0.112925377689608,-0.113535785136579,-0.113840988860064,-0.113840988860064,-0.113230581413093,-0.112162368380894,-0.110636349763467,-0.109262933007783,-0.108194719975584,-0.107889516252098,-0.108499923699069,-0.108805127422555,-0.108805127422555,-0.108652525560812,-0.108194719975584,-0.107736914390356,-0.107736914390356,-0.107736914390356,-0.107736914390356,-0.107126506943385,-0.106210895772929,-0.10514268274073,-0.10346406226156,-0.101175034335419,-0.099038608271021,-0.0972073859301085,-0.0956813673126813,-0.094765756142225,-0.0936975431100261,-0.0926293300778271,-0.0918663207691135,-0.0920189226308562,-0.0926293300778271,-0.0932397375247979,-0.0932397375247979,-0.0930871356630552,-0.0929345338013125,-0.0929345338013125,-0.0932397375247979,-0.0938501449717688,-0.0950709598657105,-0.0961391728979095,-0.096902182206623,-0.0973599877918512,-0.0978177933770793,-0.0975125896535939,-0.095833969174424,-0.0933923393865406,-0.0906455058751718,-0.0880512742255457,-0.0863726537463758,-0.0862200518846331,-0.086830459331604,-0.0878986723638029,-0.0889668853960019,-0.0897298947047155,-0.0901877002899436,-0.0909507095986572,-0.0921715244925989,-0.0941553486952542,-0.0964443766213949,-0.0985808026857929,-0.10010682130322,-0.100869830611934,-0.101327636197162,-0.101938043644133,-0.102243247367618,-0.101632839920647,-0.100564626888448,-0.0999542194414773,-0.0996490157179919,-0.0999542194414773,-0.100412025026705,-0.100259423164963,-0.0999542194414773,-0.0991912101327637,-0.0988860064092783,-0.0993438119945064,-0.100412025026705,-0.10178544178239,-0.103006256676332,-0.103921867846788,-0.103921867846788,-0.102853654814589,-0.101480238058904,-0.100412025026705,-0.0994964138562491,-0.0987334045475356,-0.0981229971005647,-0.0975125896535939,-0.0967495803448803,-0.0952235617274532,-0.0930871356630552,-0.0903403021516864,-0.0871356630550894,-0.0840836258202351,-0.0805737830001527,-0.076148329009614,-0.0706546619868764,-0.0642453837936824,-0.0566152907065467,-0.0474591790019839,-0.0376926598504503,-0.0280787425606593,-0.0195330383030674,-0.0123607508011599,-0.00778269494887849,-0.00549366702273779,-0.00488325957576694,-0.00549366702273779,-0.00656188005493678,-0.00824050053410663,-0.0109873340454755,-0.013886769418587,-0.016023195482985,-0.0164810010682131,-0.0158705936212423,-0.014954982450786,-0.0144971768655579,-0.0141919731420724,-0.0140393712803297,-0.0140393712803297,-0.0140393712803297,-0.013886769418587,-0.013886769418587,-0.0140393712803297,-0.0152601861742714,-0.0175492141004121,-0.0206012513352664,-0.0244162978788342,-0.0288417518693729,-0.0340302151686252,-0.039981687776591,-0.0460857622462995,-0.0514268274072945,-0.0561574851213186,-0.0604303372501146,-0.0642453837936824,-0.0680604303372502,-0.0717228750190753,-0.0756905234243859,-0.0799633755531819,-0.0854570425759195,-0.0918663207691135,-0.0982755989623074,-0.10346406226156,-0.107126506943385,-0.109415534869526,-0.110941553486953,-0.112009766519152,-0.111857164657409,-0.11078895162521,-0.109568136731268,-0.108347321837327,-0.107584312528613,-0.106821303219899,-0.106516099496414,-0.106210895772929,-0.105905692049443,-0.105447886464215,-0.104532275293759,-0.103158858538074,-0.101632839920647,-0.100259423164963,-0.0987334045475356,-0.0975125896535939,-0.0962917747596522,-0.0952235617274532,-0.0940027468335115,-0.0930871356630552,-0.0930871356630552,-0.0935449412482833,-0.0944605524187396,-0.0956813673126813,-0.0967495803448803,-0.0976651915153366,-0.0984282008240502,-0.0985808026857929,-0.097970395238822,-0.096902182206623,-0.0953761635891959,-0.0941553486952542,-0.0932397375247979,-0.0927819319395698,-0.0923241263543416,-0.0917137189073708,-0.0909507095986572,-0.0900350984282009,-0.0898824965664582,-0.0900350984282009,-0.0897298947047155,-0.0891194872577447,-0.0889668853960019,-0.0894246909812301,-0.0900350984282009,-0.0909507095986572,-0.0918663207691135,-0.0926293300778271,-0.0930871356630552,-0.0938501449717688,-0.0949183580039678,-0.0965969784831376,-0.0991912101327637,-0.102548451091103,-0.105600488325958,-0.107889516252098,-0.10911033114604,-0.106516099496414,-0.0962917747596522,-0.0744697085304442,-0.0376926598504503,0.0154127880360139,0.0851518388524339,0.170761483290096,0.271936517625515,0.387608728826492,0.514726079658172,0.649473523576988,0.786815199145429,0.924614680299099,1.06088814283534,1.19334655882802,1.31695406683962,1.41507706394018,1.45688997405768,1.41614527697238,1.29269037082252,1.10834732183733,0.890431863268732,0.663970700442545,0.44941248283229,0.261101785441782,0.108347321837326,-0.00427285212879608,-0.0788951625209829,-0.122539294979399,-0.145734777964291,-0.15916374179765,-0.169540668396155,-0.179307187547688,-0.188158095528766,-0.194109568136731,-0.195330383030673,-0.190294521593164,-0.179307187547688,-0.166641233023043,-0.156874713871509,-0.152754463604456,-0.153975278498398,-0.157790325041966,-0.160079352968106,-0.158400732488936,-0.152907065466199,-0.145276972379063,-0.138715092324126,-0.135815656951015,-0.13779948115367,-0.143598351899893,-0.15016023195483,-0.154280482221883,-0.154738287807111,-0.151381046848772,-0.145887379826034,-0.141919731420723,-0.141309323973753,-0.143445750038151,-0.146650389134748,-0.148786815199146,-0.148634213337403,-0.14512437051732,-0.139783305356325,-0.13444224019533,-0.131237601098734,-0.131084999236991,-0.133221425301389,-0.135815656951015,-0.137036471844957,-0.135968258812758,-0.133221425301389,-0.130016786204792,-0.127575156416908,-0.126812147108195,-0.127880360140394,-0.130016786204792,-0.131542804822219,-0.130779795513505,-0.126964748969938,-0.121318480085457,-0.115824813062719,-0.111857164657409,-0.110178544178239,-0.110483747901725,-0.111551960933923,-0.11246757210438,-0.111704562795666,-0.108652525560812,-0.104074469708531,-0.0993438119945064,-0.0959865710361667,-0.0946131542804823,-0.0941553486952542,-0.0930871356630552,-0.0901877002899436,-0.0843888295437205,-0.0767587364565849,-0.0685182359224784,-0.0613459484205708,-0.0558522813978332,-0.0520372348542653,-0.0492904013428965,-0.0468487715550131,-0.0433389287349307,-0.0383030672974211,-0.0323515946894553,-0.0264001220814895,-0.0210590569204945,-0.0163283992064704,-0.011750343354189,-0.00686708377842221,-0.00137341675568453,0.00488325957576671,0.0123607508011597,0.0206012513352662,0.0291469555928581,0.0370822524034792,0.0442545399053867,0.0508164199603234,0.0575309018770028,0.0650083931023957,0.0730962917747595,0.0816419960323515,0.0901877002899434,0.0982755989623072,0.1057530901877,0.11307797955135,0.120250267053258,0.127575156416908,0.135663055089272,0.144056157485121,0.151991454295742,0.158553334350679,0.163894399511674,0.168930260949183,0.174271326110178,0.179612391271173,0.184800854570426,0.189989317869678,0.195635586754158,0.201587059362124,0.207385930108347,0.21318480085457,0.218373264153823,0.223256523729589,0.227529375858385,0.231497024263696,0.235464672669006,0.238821913627346,0.24126354341523,0.242026552723943,0.241721349000458,0.240347932244773,0.237753700595147,0.233633450328094,0.227987181443613,0.220967495803449,0.212726995269342,0.203113077979551,0.191667938348848,0.178696780100717,0.164352205096902,0.149549824507859,0.135052647642301,0.120860674500229,0.106668701358156,0.0926293300778268,0.0785899587974972,0.0639401800701967,0.0486799938959254,0.0331146039981687,0.0177018159621546,0.00305203723485415,-0.0108347321837328,-0.0239584922936061,-0.0361666412330231,-0.0471539752784985,-0.0570730962917749,-0.0656188005493668,-0.072943689913017,-0.0792003662444683,-0.0848466351289487,-0.0894246909812301,-0.0929345338013125,-0.0956813673126813,-0.0982755989623074,-0.100564626888448,-0.102548451091103,-0.10346406226156,-0.103616664123302,-0.103158858538074,-0.102395849229361,-0.10178544178239,-0.10178544178239,-0.102090645505875,-0.102243247367618,-0.101632839920647,-0.100259423164963,-0.0987334045475356,-0.0975125896535939,-0.096902182206623,-0.0959865710361667,-0.094765756142225,-0.0936975431100261,-0.0929345338013125,-0.0921715244925989,-0.0912559133221426,-0.0895772928429728,-0.0874408667785748,-0.0856096444376622,-0.0849992369906914,-0.0849992369906914,-0.0851518388524341,-0.0848466351289487,-0.0840836258202351,-0.0830154127880361,-0.0817945978940944,-0.0810315885853808,-0.0808789867236381,-0.081489394170609,-0.082557607202808,-0.0830154127880361,-0.0830154127880361,-0.0824050053410653,-0.081489394170609,-0.08042118113841,-0.0795055699679537,-0.0790477643827256,-0.0792003662444683,-0.0790477643827256,-0.0785899587974974,-0.0781321532122693,-0.077216542041813,-0.0756905234243859,-0.0741645048069588,-0.072943689913017,-0.0720280787425608,-0.0715702731573326,-0.0720280787425608,-0.0734014954982452,-0.0755379215626432,-0.0773691439035557,-0.0788951625209829,-0.0802685792766673,-0.081489394170609,-0.0819471997558371,-0.0819471997558371,-0.0810315885853808,-0.0792003662444683,-0.0769113383183276,-0.0746223103921869,-0.0726384861895316,-0.0708072638486191,-0.0698916526781628,-0.0701968564016482,-0.0711124675721045,-0.0723332824660462,-0.0730962917747598,-0.074011902945216,-0.0749275141156723,-0.0753853197009005,-0.0758431252861286,-0.0767587364565849,-0.078284755074012,-0.0802685792766673,-0.0820998016175798,-0.0837784220967497,-0.0849992369906914,-0.0859148481611477,-0.0866778574698612,-0.0874408667785748,-0.0883564779490311,-0.0886616816725165,-0.0880512742255457,-0.0875934686403175,-0.0874408667785748,-0.0872882649168321,-0.0869830611933467,-0.0869830611933467,-0.0880512742255457,-0.0895772928429728,-0.0912559133221426,-0.0926293300778271,-0.0936975431100261,-0.0946131542804823,-0.094765756142225,-0.0936975431100261,-0.0907981077369145,-0.0866778574698612,-0.0828628109262934,-0.0796581718296964,-0.0764535327330994,-0.0720280787425608,-0.0659240042728522,-0.0582939111857166,-0.0492904013428965,-0.0392186784678774,-0.0286891500076302,-0.0184648252708684,-0.00869830611933477,0.000305203723485315,0.00747749122539284,0.0123607508011597,0.0149549824507858,0.0155653898977566,0.0148023805890431,0.0129711582481305,0.00976651915153354,0.00534106516099485,0.00137341675568431,-0.000610407446970964,-0.000763009308713677,0.000305203723485315,0.00106821303219888,0.000610407446970742,-0.000610407446970964,-0.00167862047916996,-0.00183122234091267,-0.00137341675568453,-0.000610407446970964,-0.000152601861742824,-0.000610407446970964,-0.00259423164962624,-0.00625667633145135,-0.01068213032199,-0.0152601861742714,-0.0196856401648101,-0.0245688997405769,-0.0302151686250573,-0.0361666412330231,-0.0413551045322754,-0.0460857622462995,-0.0502060125133528,-0.0540210590569206,-0.0578361056004884,-0.0625667633145125,-0.0679078284755075,-0.0738593010834733,-0.0807263848618954,-0.0882038760872884,-0.0946131542804823,-0.0993438119945064,-0.102395849229361,-0.104684877155501,-0.106363497634671,-0.107279108805128,-0.107736914390356,-0.107889516252098,-0.107736914390356,-0.107279108805128,-0.106516099496414,-0.105600488325958,-0.104990080878987,-0.104684877155501,-0.104227071570273,-0.10346406226156,-0.102243247367618,-0.101327636197162,-0.100259423164963,-0.0987334045475356,-0.0970547840683657,-0.0955287654509386,-0.0941553486952542,-0.0927819319395698,-0.0915611170456281,-0.0907981077369145,-0.0900350984282009,-0.0886616816725165,-0.0866778574698612,-0.0848466351289487,-0.0830154127880361,-0.0813367923088663,-0.0799633755531819,-0.0792003662444683,-0.0790477643827256,-0.0787425606592402,-0.078284755074012,-0.0775217457652984,-0.0763009308713567,-0.0747749122539296,-0.0732488936365025,-0.0717228750190753,-0.0700442545399055,-0.0679078284755075,-0.0654661986876241,-0.0633297726232261,-0.0613459484205708,-0.0598199298031437,-0.0582939111857166,-0.0566152907065467,-0.0547840683656342,-0.0531054478864643,-0.052189836716008,-0.0518846329925226,-0.0528002441629789,-0.055394475812605,-0.059667327941401,-0.065008393102396,-0.0708072638486191,-0.0763009308713567,-0.0810315885853808,-0.0848466351289487,-0.0854570425759195,-0.0785899587974974,-0.0599725316648864,-0.0268579276667176,0.0218220662292079,0.0869830611933464,0.168777659087441,0.265985045017549,0.377689607813215,0.502060125133526,0.635128948573172,0.771402411109415,0.908438882954372,1.04547535479933,1.18052800244163,1.30779795513505,1.41065160994964,1.45841599267511,1.42484358309171,1.30871356630551,1.12986418434305,0.914695559285823,0.687929192736151,0.470624141614528,0.278650999542194,0.122691896841141,0.00732488936365012,-0.0686708377842211,-0.113383183274836,-0.137036471844957,-0.15016023195483,-0.159316343659393,-0.166793834884786,-0.172592705631009,-0.175644742865863,-0.174423927971921,-0.167251640470014,-0.155348695254082,-0.142682740729437,-0.133526629024874,-0.13047459179002,-0.133679230886617,-0.139630703494583,-0.144361361208607,-0.145276972379063,-0.141767129558981,-0.135663055089272,-0.13047459179002,-0.12879597131085,-0.131695406683962,-0.13779948115367,-0.144208759346864,-0.146955592858233,-0.144819166793835,-0.139172897909355,-0.132611017854418,-0.12711735083168,-0.124217915458569,-0.124217915458569,-0.125896535937739,-0.127422554555166,-0.12711735083168,-0.124370517320311,-0.119487257744545,-0.114909201892263,-0.112314970242637,-0.113077979551351,-0.11643522050969,-0.120250267053258,-0.122386693117656,-0.121318480085457,-0.117045627956661,-0.111246757210438,-0.106058293911186,-0.103158858538074,-0.102395849229361,-0.102701052952846,-0.103006256676332,-0.102395849229361,-0.10010682130322,-0.0964443766213949,-0.0929345338013125,-0.0904929040134291,-0.0895772928429728,-0.0897298947047155,-0.0894246909812301,-0.0877460705020602,-0.0851518388524341,-0.0819471997558371,-0.0781321532122693,-0.0747749122539296,-0.0727910880512743,-0.0720280787425608,-0.0717228750190753,-0.0711124675721045,-0.0697390508164201,-0.0671448191667939,-0.0630245688997407,-0.0576835037387457,-0.0523424385777508,-0.0479169845872121,-0.0451701510758432,-0.0430337250114452,-0.0404394933618191,-0.0364718449565086,-0.031435983518999,-0.0262475202197468,-0.0209064550587518,-0.0161757973447277,-0.0120555470776745,-0.00778269494887849,-0.0033572409583398,0.00137341675568431,0.00747749122539284,0.0149549824507858,0.0225850755379215,0.0296047611780863,0.0352510300625666,0.0396764840531053,0.044101938043644,0.049443003204639,0.0560048832595757,0.0639401800701967,0.0732488936365022,0.0830154127880359,0.092018922630856,0.0998016175797344,0.106821303219899,0.114298794445292,0.122539294979399,0.131542804822219,0.141004120250267,0.149855028231344,0.157637723180223,0.164504806958645,0.170303677704868,0.175339539142377,0.179764993132916,0.18449565084694,0.189989317869678,0.195940790477644,0.20189226308561,0.207843735693575,0.213337402716313,0.218525866015565,0.223714329314818,0.228597588890584,0.233175644742866,0.237448496871662,0.241110941553487,0.244162978788341,0.245994201129254,0.246299404852739,0.24523119182054,0.242484358309171,0.238211506180375,0.232717839157638,0.226003357240958,0.217610254845109,0.20753853197009,0.196245994201129,0.184343048985197,0.172287501907523,0.159621547382878,0.146345185411262,0.131848008545704,0.116130016786205,0.0999542194414771,0.0837784220967495,0.0685182359224781,0.0540210590569204,0.0404394933618189,0.0274683351136883,0.0148023805890431,0.00228902792614059,-0.00991912101327647,-0.0221272699526935,-0.0344880207538533,-0.0463909659697849,-0.0569204944300322,-0.0654661986876241,-0.0727910880512743,-0.0792003662444683,-0.0843888295437205,-0.0883564779490311,-0.0917137189073708,-0.0946131542804823,-0.096902182206623,-0.0985808026857929,-0.0996490157179919,-0.100412025026705,-0.101022432473676,-0.101175034335419,-0.100869830611934,-0.10010682130322,-0.0994964138562491,-0.0988860064092783,-0.0984282008240502,-0.0981229971005647,-0.0978177933770793,-0.0972073859301085,-0.0964443766213949,-0.0961391728979095,-0.0965969784831376,-0.0978177933770793,-0.0991912101327637,-0.100259423164963,-0.100717228750191,-0.100412025026705,-0.0994964138562491,-0.0985808026857929,-0.0976651915153366,-0.0967495803448803,-0.0953761635891959,-0.0936975431100261,-0.0918663207691135,-0.0907981077369145,-0.0911033114603999,-0.0924767282160843,-0.0943079505569969,-0.0961391728979095,-0.0975125896535939,-0.0982755989623074,-0.0982755989623074,-0.097970395238822,-0.097970395238822,-0.0975125896535939,-0.0964443766213949,-0.0952235617274532,-0.0941553486952542,-0.0929345338013125,-0.0918663207691135,-0.0906455058751718,-0.0891194872577447,-0.0872882649168321,-0.0851518388524341,-0.0831680146497788,-0.0816419960323517,-0.0808789867236381,-0.08042118113841,-0.0802685792766673,-0.08042118113841,-0.0805737830001527,-0.0805737830001527,-0.0802685792766673,-0.0799633755531819,-0.0790477643827256,-0.0781321532122693,-0.0775217457652984,-0.077216542041813,-0.0766061345948422,-0.076148329009614,-0.0759957271478713,-0.0763009308713567,-0.077216542041813,-0.0778269494887839,-0.078284755074012,-0.0781321532122693,-0.0773691439035557,-0.0769113383183276,-0.0770639401800703,-0.077216542041813,-0.077216542041813,-0.0776743476270412,-0.0787425606592402,-0.0802685792766673,-0.0819471997558371,-0.0842362276819778,-0.0866778574698612,-0.0888142835342592,-0.0900350984282009,-0.0901877002899436,-0.0894246909812301,-0.0888142835342592,-0.0883564779490311,-0.0877460705020602,-0.0869830611933467,-0.0862200518846331,-0.085762246299405,-0.0859148481611477,-0.0865252556081185,-0.0869830611933467,-0.0869830611933467,-0.0866778574698612,-0.086830459331604,-0.0871356630550894,-0.0871356630550894,-0.0865252556081185,-0.0854570425759195,-0.0840836258202351,-0.0820998016175798,-0.0796581718296964,-0.077216542041813,-0.0755379215626432,-0.0746223103921869,-0.0732488936365025,-0.0711124675721045,-0.0669922173050512,-0.0601251335266291,-0.0508164199603236,-0.0396764840531056,-0.0279261406989166,-0.0164810010682131,-0.00610407446970864,0.0024416297878833,0.0082405005341064,0.0108347321837325,0.0109873340454752,0.0093087135663054,0.0070196856401647,0.00427285212879586,0.00106821303219888,-0.00244162978788352,-0.0056462688844805,-0.00732488936365035,-0.00671448191667949,-0.00518846329925236,-0.00396764840531066,-0.00320463909659709,-0.00259423164962624,-0.00152601861742724,-0.000152601861742824,0.000763009308713455,0.000763009308713455,-0.000763009308713677,-0.00427285212879608,-0.00885090798107748,-0.0135815656951016,-0.0175492141004121,-0.0207538531970091,-0.023500686708378,-0.0264001220814895,-0.0292995574546011,-0.0318937891042272,-0.0341828170303679,-0.036777048679994,-0.0402868915000764,-0.0448649473523578,-0.0508164199603236,-0.0570730962917749,-0.0631771707614834,-0.0689760415077065,-0.0746223103921869,-0.0802685792766673,-0.0859148481611477,-0.0914085151838853,-0.0965969784831376,-0.101022432473676,-0.104684877155501,-0.107279108805128,-0.108499923699069,-0.107889516252098,-0.105447886464215,-0.102395849229361,-0.0999542194414773,-0.0988860064092783,-0.0984282008240502,-0.0985808026857929,-0.0987334045475356,-0.0988860064092783,-0.099038608271021,-0.0987334045475356,-0.0978177933770793,-0.0965969784831376,-0.0949183580039678,-0.0929345338013125,-0.0909507095986572,-0.0895772928429728,-0.0891194872577447,-0.0895772928429728,-0.0900350984282009,-0.0898824965664582,-0.0891194872577447,-0.0880512742255457,-0.0869830611933467,-0.0863726537463758,-0.0859148481611477,-0.0848466351289487,-0.0831680146497788,-0.0813367923088663,-0.0792003662444683,-0.0767587364565849,-0.074011902945216,-0.0712650694338472,-0.0680604303372502,-0.065008393102396,-0.0621089577292844,-0.0602777353883718,-0.0593621242179156,-0.0592095223561729,-0.0592095223561729,-0.0587517167709447,-0.057530901877003,-0.0558522813978332,-0.0550892720891196,-0.055394475812605,-0.0570730962917749,-0.0602777353883718,-0.0645505875171678,-0.0697390508164201,-0.0749275141156723,-0.0796581718296964,-0.0833206165115215,-0.0851518388524341,-0.081489394170609,-0.0682130321989929,-0.0416603082557608,0.000152601861742602,0.0581413093239736,0.132000610407447,0.221730505112162,0.326262780405921,0.444071417671295,0.572256981535175,0.705478406836563,0.839920647031894,0.974668090950709,1.10834732183733,1.23851670990386,1.35556233786052,1.43522050969022,1.44559743628872,1.37128032962002,1.22325652372959,1.026094918358,0.805127422554555,0.583091713718907,0.379215626430642,0.206165115214406,0.0711124675721043,-0.0239584922936061,-0.0845414314054632,-0.119182054021059,-0.138257286738898,-0.150618037540058,-0.161300167862048,-0.171219288875324,-0.178391576377232,-0.181443613612086,-0.179154585685945,-0.171219288875324,-0.159774149244621,-0.148023805890432,-0.140088509079811,-0.137952083015413,-0.140241110941554,-0.144208759346864,-0.146955592858233,-0.146345185411262,-0.142072333282466,-0.136273462536243,-0.132000610407447,-0.131542804822219,-0.134289638333588,-0.137341675568442,-0.138562490462384,-0.136578666259728,-0.131084999236991,-0.124065313596826,-0.117808637265375,-0.114298794445292,-0.114603998168778,-0.117808637265375,-0.122234091255913,-0.125133526629025,-0.124675721043797,-0.121623683808943,-0.117656035403632,-0.11475660003052,-0.114451396307035,-0.116587822371433,-0.119487257744545,-0.1214710819472,-0.121165878223714,-0.118724248435831,-0.115519609339234,-0.11246757210438,-0.110636349763467,-0.110331146039982,-0.111551960933923,-0.113383183274836,-0.11475660003052,-0.114298794445292,-0.111857164657409,-0.107736914390356,-0.103158858538074,-0.10010682130322,-0.0991912101327637,-0.0998016175797346,-0.100412025026705,-0.10010682130322,-0.0984282008240502,-0.0953761635891959,-0.0920189226308562,-0.0892720891194874,-0.0878986723638029,-0.0874408667785748,-0.0869830611933467,-0.085762246299405,-0.0827102090645507,-0.0784373569357547,-0.0737066992217306,-0.0689760415077065,-0.0647031893789105,-0.0610407446970854,-0.0578361056004884,-0.0552418739508623,-0.0526476423012362,-0.0494430032046392,-0.0447123454906151,-0.0387608728826493,-0.032504196551198,-0.0270105295284604,-0.0227376773996644,-0.019227834579582,-0.0158705936212423,-0.0115977414924463,-0.0056462688844805,0.00152601861742702,0.00946131542804811,0.0169388066534411,0.0236532885701204,0.0305203723485425,0.0378452617121928,0.0457805585228139,0.0544788646421485,0.0633297726232259,0.0724858843277887,0.0819471997558369,0.090950709598657,0.0993438119945062,0.106821303219899,0.114146192583549,0.121165878223714,0.128185563863879,0.135052647642301,0.141919731420723,0.148634213337403,0.155043491530597,0.160994964138562,0.1664886311613,0.171371890737067,0.176255150312834,0.181291011750343,0.186632076911338,0.191667938348848,0.196398596062872,0.200976651915153,0.206012513352663,0.2115061803754,0.216847245536395,0.221425301388677,0.224935144208759,0.2272241721349,0.228139783305356,0.227529375858385,0.22554555165573,0.222340912559133,0.218068060430337,0.213337402716313,0.208148939417061,0.20189226308561,0.193956966274988,0.184190447123455,0.172745307492751,0.160231954829849,0.146955592858233,0.133221425301389,0.118724248435831,0.103769265985045,0.0885090798107736,0.0724858843277887,0.0563100869830611,0.0407446970853043,0.0262475202197466,0.0129711582481305,0.000763009308713455,-0.01068213032199,-0.0218220662292081,-0.0321989928277126,-0.0418129101175035,-0.0515794292690372,-0.0619563558675417,-0.0723332824660462,-0.0822524034793226,-0.0909507095986572,-0.0981229971005647,-0.104074469708531,-0.108957729284297,-0.112314970242637,-0.114451396307035,-0.116130016786205,-0.117503433541889,-0.118724248435831,-0.119182054021059,-0.118724248435831,-0.117961239127117,-0.117350831680147,-0.117198229818404,-0.117045627956661,-0.116893026094918,-0.116740424233176,-0.116893026094918,-0.117198229818404,-0.117503433541889,-0.117961239127117,-0.118876850297574,-0.119945063329773,-0.120860674500229,-0.121165878223714,-0.120250267053258,-0.117961239127117,-0.114909201892263,-0.112162368380894,-0.109720738593011,-0.108194719975584,-0.106821303219899,-0.105295284602472,-0.103921867846788,-0.102395849229361,-0.100869830611934,-0.0991912101327637,-0.0976651915153366,-0.0961391728979095,-0.0952235617274532,-0.0953761635891959,-0.0964443766213949,-0.097970395238822,-0.099038608271021,-0.0988860064092783,-0.0975125896535939,-0.0953761635891959,-0.0929345338013125,-0.0901877002899436,-0.0874408667785748,-0.0853044407141768,-0.0839310239584924,-0.0830154127880361,-0.0824050053410653,-0.0816419960323517,-0.0807263848618954,-0.0796581718296964,-0.0787425606592402,-0.078284755074012,-0.0778269494887839,-0.0770639401800703,-0.0763009308713567,-0.0756905234243859,-0.0749275141156723,-0.0743171066687015,-0.0738593010834733,-0.0730962917747598,-0.072943689913017,-0.0738593010834733,-0.0756905234243859,-0.0773691439035557,-0.0784373569357547,-0.079352968106211,-0.0805737830001527,-0.0817945978940944,-0.0827102090645507,-0.0837784220967497,-0.0854570425759195,-0.0869830611933467,-0.0872882649168321,-0.0871356630550894,-0.0869830611933467,-0.0865252556081185,-0.0862200518846331,-0.0860674500228904,-0.085762246299405,-0.0853044407141768,-0.084694033267206,-0.0837784220967497,-0.082557607202808,-0.081489394170609,-0.0807263848618954,-0.0805737830001527,-0.0808789867236381,-0.0817945978940944,-0.0833206165115215,-0.0849992369906914,-0.0869830611933467,-0.0885090798107738,-0.0888142835342592,-0.0874408667785748,-0.0849992369906914,-0.0822524034793226,-0.0796581718296964,-0.0778269494887839,-0.0770639401800703,-0.0766061345948422,-0.0755379215626432,-0.0734014954982452,-0.0695864489546774,-0.0640927819319397,-0.0567678925682894,-0.0482221883106975,-0.0383030672974211,-0.0271631313902031,-0.0154127880360142,-0.00427285212879608,0.00503586143750943,0.0112925377689607,0.0140393712803295,0.0135815656951014,0.0109873340454752,0.00793529681062098,0.00564626888448028,0.00350984282008229,0.000915611170456168,-0.00167862047916996,-0.00320463909659709,-0.0021364260643981,0.000763009308713455,0.00396764840531043,0.00625667633145113,0.00778269494887826,0.00869830611933455,0.00961391728979082,0.0106821303219898,0.0114451396307034,0.0117503433541888,0.0105295284602471,0.00793529681062098,0.00396764840531043,-0.000305203723485538,-0.00427285212879608,-0.0079352968106212,-0.0120555470776745,-0.0163283992064704,-0.0204486494735237,-0.0251793071875478,-0.0309781779337709,-0.0370822524034794,-0.0428811231497025,-0.0483747901724402,-0.0540210590569206,-0.0599725316648864,-0.0665344117198231,-0.0737066992217306,-0.0801159774149246,-0.084694033267206,-0.0877460705020602,-0.0895772928429728,-0.0901877002899436,-0.0904929040134291,-0.0906455058751718,-0.0906455058751718,-0.0897298947047155,-0.0885090798107738,-0.0878986723638029,-0.0882038760872884,-0.0886616816725165,-0.0888142835342592,-0.0886616816725165,-0.0885090798107738,-0.0878986723638029,-0.0866778574698612,-0.0851518388524341,-0.0833206165115215,-0.0817945978940944,-0.0807263848618954,-0.08042118113841,-0.0802685792766673,-0.0796581718296964,-0.0784373569357547,-0.0767587364565849,-0.0753853197009005,-0.0743171066687015,-0.0732488936365025,-0.0723332824660462,-0.0717228750190753,-0.0709598657103618,-0.0694338470929346,-0.0669922173050512,-0.0642453837936824,-0.061803754005799,-0.0598199298031437,-0.0579887074622311,-0.0561574851213186,-0.0547840683656342,-0.0540210590569206,-0.0538684571951779,-0.0538684571951779,-0.0534106516099497,-0.0523424385777508,-0.0514268274072945,-0.051121623683809,-0.051121623683809,-0.051121623683809,-0.0508164199603236,-0.0500534106516101,-0.0492904013428965,-0.0489851976194111,-0.0497482069281246,-0.052189836716008,-0.056462688844804,-0.0619563558675417,-0.0677552266137648,-0.0727910880512743,-0.0763009308713567,-0.0767587364565849,-0.0697390508164201,-0.0506638180985809,-0.0161757973447277,0.0344880207538531,0.100717228750191,0.182054021059057,0.278345795818709,0.388829543720433,0.512589653593774,0.645811078895162,0.782694948878376,0.919426216999847,1.05432626278041,1.18571646574088,1.30871356630551,1.40470013734168,1.4387303525103,1.38364108042118,1.24538379368228,1.05234243857775,0.834884785594384,0.617274530749275,0.417060888142835,0.245688997405768,0.110025942316496,0.0128185563863878,-0.0492904013428965,-0.0848466351289487,-0.104990080878987,-0.120097665191515,-0.136578666259728,-0.155043491530597,-0.171829696322295,-0.182817030367771,-0.185869067602625,-0.181748817335572,-0.173050511216237,-0.163589195788189,-0.156416908286281,-0.153670074774912,-0.154585685945369,-0.156874713871509,-0.157790325041966,-0.154890889668854,-0.14848161147566,-0.140546314665039,-0.13444224019533,-0.132763619716161,-0.135510453227529,-0.140851518388524,-0.146650389134748,-0.150007630093087,-0.149092018922631,-0.144971768655578,-0.140088509079811,-0.136731268121471,-0.136273462536243,-0.138715092324126,-0.142377537005952,-0.14451396307035,-0.142987944452922,-0.138104684877156,-0.131542804822219,-0.125743934075996,-0.122386693117656,-0.122386693117656,-0.124217915458569,-0.126049137799481,-0.125896535937739,-0.12314970242637,-0.117503433541889,-0.110483747901725,-0.104684877155501,-0.10178544178239,-0.101327636197162,-0.101938043644133,-0.101938043644133,-0.100259423164963,-0.0967495803448803,-0.0927819319395698,-0.0895772928429728,-0.0882038760872884,-0.0891194872577447,-0.0911033114603999,-0.0927819319395698,-0.0923241263543416,-0.0892720891194874,-0.0843888295437205,-0.0785899587974974,-0.0735540973599879,-0.0701968564016482,-0.0692812452311919,-0.0700442545399055,-0.0703494582633909,-0.0683656340607356,-0.0643979856554251,-0.0595147260796583,-0.0546314665038915,-0.0503586143750955,-0.0471539752784985,-0.0445597436288724,-0.0419655119792463,-0.0390660766061347,-0.035708835647795,-0.0311307797955136,-0.0260949183580041,-0.0222798718144362,-0.020296047611781,-0.0189226308560966,-0.017091408515184,-0.0146497787273006,-0.0109873340454755,-0.0056462688844805,0.000763009308713455,0.00747749122539284,0.0132763619716159,0.0186174271326109,0.024416297878834,0.0311307797955134,0.0381504654356782,0.0454753547993284,0.0524950404394932,0.0592095223561726,0.0651609949641384,0.0705020601251334,0.0750801159774148,0.0792003662444681,0.0840836258202349,0.0903403021516861,0.0973599877918509,0.104379673432016,0.111246757210438,0.118419044712345,0.12543873035251,0.132458415992675,0.138715092324126,0.144056157485121,0.147871204028689,0.150770639401801,0.153670074774912,0.156874713871509,0.160079352968106,0.162215779032504,0.163283992064703,0.164199603235159,0.165573019990844,0.167709446055242,0.170151075843125,0.172287501907523,0.17381352052495,0.174729131695407,0.174729131695407,0.17381352052495,0.17213490004578,0.169998473981382,0.166793834884785,0.162215779032504,0.156416908286281,0.149855028231344,0.141919731420723,0.132458415992675,0.122386693117656,0.112772775827865,0.103311460399817,0.0933923393865404,0.0830154127880359,0.0721806806043033,0.0607355409735998,0.0482221883106973,0.0350984282008239,0.0218220662292079,0.00885090798107726,-0.0033572409583398,-0.0148023805890433,-0.0250267053258051,-0.0338776133068825,-0.042118113840989,-0.0497482069281246,-0.0561574851213186,-0.061803754005799,-0.0674500228902794,-0.0732488936365025,-0.0798107736914391,-0.0859148481611477,-0.0912559133221426,-0.0953761635891959,-0.0981229971005647,-0.0998016175797346,-0.10178544178239,-0.104532275293759,-0.107279108805128,-0.10911033114604,-0.110483747901725,-0.112009766519152,-0.113535785136579,-0.114298794445292,-0.113535785136579,-0.111246757210438,-0.108652525560812,-0.10743171066687,-0.108042118113841,-0.110025942316496,-0.111399359072181,-0.111551960933923,-0.11078895162521,-0.109262933007783,-0.106973905081642,-0.103769265985045,-0.0998016175797346,-0.0965969784831376,-0.0946131542804823,-0.0935449412482833,-0.0929345338013125,-0.0926293300778271,-0.0924767282160843,-0.0921715244925989,-0.0918663207691135,-0.0918663207691135,-0.0923241263543416,-0.0923241263543416,-0.0911033114603999,-0.0886616816725165,-0.0859148481611477,-0.0834732183732643,-0.0811841904471236,-0.0792003662444683,-0.078284755074012,-0.0781321532122693,-0.0781321532122693,-0.0784373569357547,-0.0788951625209829,-0.0795055699679537,-0.0799633755531819,-0.0802685792766673,-0.0799633755531819,-0.0788951625209829,-0.0776743476270412,-0.0769113383183276,-0.0759957271478713,-0.0753853197009005,-0.0752327178391577,-0.0756905234243859,-0.0764535327330994,-0.0781321532122693,-0.0801159774149246,-0.0819471997558371,-0.0833206165115215,-0.0842362276819778,-0.0845414314054632,-0.0839310239584924,-0.082557607202808,-0.081489394170609,-0.0802685792766673,-0.0785899587974974,-0.0767587364565849,-0.0753853197009005,-0.0743171066687015,-0.0737066992217306,-0.0738593010834733,-0.0735540973599879,-0.0720280787425608,-0.0697390508164201,-0.0679078284755075,-0.0671448191667939,-0.0669922173050512,-0.0669922173050512,-0.0669922173050512,-0.0672974210285367,-0.0677552266137648,-0.0677552266137648,-0.0671448191667939,-0.0654661986876241,-0.0627193651762553,-0.0582939111857166,-0.0520372348542653,-0.0445597436288724,-0.0369296505417367,-0.0289943537311156,-0.0209064550587518,-0.012818556386388,-0.0056462688844805,-0.000457805585228251,0.00259423164962601,0.00442545399053857,0.00549366702273757,0.00595147260796571,0.00610407446970842,0.00579887074622299,0.00457805585228129,0.00305203723485415,0.00198382420265516,0.0024416297878833,0.00350984282008229,0.004730657714024,0.00625667633145113,0.00854570425759183,0.0120555470776742,0.0160231954829848,0.0195330383030672,0.0218220662292079,0.0221272699526933,0.0199908438882953,0.0151075843125285,0.00808789867236369,0.000610407446970742,-0.00579887074622321,-0.0108347321837328,-0.0154127880360142,-0.0207538531970091,-0.0257897146345187,-0.0306729742102855,-0.0355562337860523,-0.0401342896383337,-0.0445597436288724,-0.0488325957576684,-0.0537158553334352,-0.0593621242179156,-0.0657714024111095,-0.0726384861895316,-0.0795055699679537,-0.085762246299405,-0.0912559133221426,-0.0956813673126813,-0.099038608271021,-0.101632839920647,-0.103311460399817,-0.103921867846788,-0.102701052952846,-0.0999542194414773,-0.0967495803448803,-0.0933923393865406,-0.0906455058751718,-0.0891194872577447,-0.0889668853960019,-0.0900350984282009,-0.0914085151838853,-0.0917137189073708,-0.0912559133221426,-0.0904929040134291,-0.0901877002899436,-0.0901877002899436,-0.0903403021516864,-0.0898824965664582,-0.0888142835342592,-0.0871356630550894,-0.0849992369906914,-0.0822524034793226,-0.0795055699679537,-0.0773691439035557,-0.0759957271478713,-0.0744697085304442,-0.0724858843277889,-0.0705020601251336,-0.0691286433694492,-0.0688234396459638,-0.0688234396459638,-0.0682130321989929,-0.0668396154433085,-0.0648557912406532,-0.0625667633145125,-0.0602777353883718,-0.058599114909202,-0.0570730962917749,-0.0555470776743477,-0.0534106516099497,-0.0506638180985809,-0.0477643827254694,-0.0453227529375859,-0.0437967343201588,-0.0444071417671297,-0.0468487715550131,-0.0505112162368382,-0.0546314665038915,-0.0595147260796583,-0.0648557912406532,-0.0700442545399055,-0.0743171066687015,-0.0769113383183276,-0.0756905234243859,-0.0671448191667939,-0.0476117808637266,-0.0135815656951016,0.0364718449565084,0.102548451091103,0.183580039676484,0.279871814436136,0.391728979093545,0.518083320616511,0.655577598046696,0.797497329467419,0.939111857164657,1.07874256065924,1.21425301388677,1.34091255913322,1.44254539905387,1.48557912406531,1.43949336181901,1.30566152907065,1.11216236838089,0.890431863268732,0.665954524645201,0.457347779642912,0.276667175339539,0.131237601098733,0.0247215016023194,-0.044254539905387,-0.0842362276819778,-0.106363497634671,-0.121318480085457,-0.136578666259728,-0.153822676636655,-0.170151075843125,-0.181138409888601,-0.184800854570426,-0.18052800244163,-0.170303677704868,-0.158248130627194,-0.148634213337403,-0.14451396307035,-0.145582176102549,-0.149244620784374,-0.151686250572257,-0.150312833816573,-0.144971768655578,-0.137341675568442,-0.13047459179002,-0.12711735083168,-0.128338165725622,-0.132611017854418,-0.137036471844957,-0.13947810163284,-0.138409888600641,-0.13383183274836,-0.127575156416908,-0.122539294979399,-0.121013276361972,-0.12314970242637,-0.127269952693423,-0.130627193651763,-0.130932397375248,-0.127727758278651,-0.122081489394171,-0.11643522050969,-0.112925377689608,-0.11246757210438,-0.114451396307035,-0.117045627956661,-0.117808637265375,-0.115367007477491,-0.109873340454754,-0.103006256676332,-0.0972073859301085,-0.0940027468335115,-0.0940027468335115,-0.0964443766213949,-0.0991912101327637,-0.100564626888448,-0.0991912101327637,-0.0953761635891959,-0.0907981077369145,-0.0875934686403175,-0.086830459331604,-0.0877460705020602,-0.0888142835342592,-0.0885090798107738,-0.0859148481611477,-0.0813367923088663,-0.0764535327330994,-0.0724858843277889,-0.0701968564016482,-0.0691286433694492,-0.0686708377842211,-0.0674500228902794,-0.0648557912406532,-0.0607355409736,-0.0558522813978332,-0.0509690218220663,-0.0468487715550131,-0.0437967343201588,-0.0416603082557608,-0.0398290859148483,-0.0379978635739357,-0.035708835647795,-0.032504196551198,-0.0277735388371739,-0.022432473676179,-0.017091408515184,-0.0129711582481307,-0.00946131542804833,-0.00595147260796593,-0.00198382420265538,0.00274683351136873,0.00854570425759183,0.0151075843125285,0.0213642606439797,0.0267053258049747,0.0312833816572561,0.0357088356477948,0.0410499008087898,0.0477643827254691,0.0560048832595757,0.0654661986876239,0.0756905234243857,0.0851518388524339,0.0929345338013123,0.0993438119945062,0.105295284602472,0.111094155348695,0.116893026094918,0.122386693117656,0.128185563863879,0.133984434610102,0.139783305356325,0.145276972379063,0.150618037540058,0.155653898977567,0.16084236227682,0.166336029299557,0.171982298184038,0.176865557759805,0.180833206165115,0.184190447123455,0.187242484358309,0.189989317869678,0.192278345795819,0.194262169998474,0.196703799786357,0.199298031435983,0.200976651915153,0.201434457500381,0.200366244468182,0.197466809095071,0.193651762551503,0.189378910422707,0.184953456432168,0.179612391271173,0.173050511216237,0.165573019990844,0.156874713871509,0.147413398443461,0.136731268121471,0.125286128490767,0.113535785136579,0.101632839920647,0.0892720891194871,0.0764535327330992,0.0628719670379977,0.0495956050663817,0.0370822524034792,0.0256371127727757,0.0148023805890431,0.00457805585228129,-0.00457805585228151,-0.012818556386388,-0.0207538531970091,-0.0286891500076302,-0.0366244468182513,-0.0439493361819015,-0.0502060125133528,-0.0560048832595759,-0.0607355409736,-0.0643979856554251,-0.0674500228902794,-0.0701968564016482,-0.0730962917747598,-0.0756905234243859,-0.0776743476270412,-0.0792003662444683,-0.0796581718296964,-0.0792003662444683,-0.0785899587974974,-0.0778269494887839,-0.0775217457652984,-0.077216542041813,-0.0769113383183276,-0.076148329009614,-0.0755379215626432,-0.0749275141156723,-0.0743171066687015,-0.0738593010834733,-0.0734014954982452,-0.0734014954982452,-0.0735540973599879,-0.0735540973599879,-0.0730962917747598,-0.0726384861895316,-0.0718754768808181,-0.0712650694338472,-0.0706546619868764,-0.0698916526781628,-0.0689760415077065,-0.0679078284755075,-0.0668396154433085,-0.0659240042728522,-0.0648557912406532,-0.063940180070197,-0.0627193651762553,-0.0614985502823136,-0.0607355409736,-0.0601251335266291,-0.0593621242179156,-0.0584465130474593,-0.0578361056004884,-0.0573783000152603,-0.0570730962917749,-0.0567678925682894,-0.056462688844804,-0.0561574851213186,-0.055394475812605,-0.054326262780406,-0.0534106516099497,-0.0528002441629789,-0.0526476423012362,-0.0520372348542653,-0.0512742255455518,-0.0506638180985809,-0.0503586143750955,-0.0499008087898673,-0.0492904013428965,-0.0489851976194111,-0.0491377994811538,-0.0495956050663819,-0.0502060125133528,-0.0503586143750955,-0.0503586143750955,-0.0503586143750955,-0.0505112162368382,-0.0508164199603236,-0.051121623683809,-0.051121623683809,-0.0512742255455518,-0.0515794292690372,-0.0520372348542653,-0.053258049748207,-0.0550892720891196,-0.0567678925682894,-0.057530901877003,-0.057530901877003,-0.0567678925682894,-0.055394475812605,-0.0535632534716925,-0.0515794292690372,-0.0502060125133528,-0.0495956050663819,-0.0494430032046392,-0.0488325957576684,-0.0466961696932704,-0.043186326873188,-0.0383030672974211,-0.0323515946894553,-0.0251793071875478,-0.017091408515184,-0.00808789867236391,0.000915611170456168,0.00961391728979082,0.0170914085151838,0.0221272699526933,0.0245688997405767,0.0248741034640621,0.0242636960170913,0.0227376773996642,0.0204486494735235,0.0170914085151838,0.0137341675568441,0.011139935907218,0.010071722875019,0.010071722875019,0.0103769265985044,0.0103769265985044,0.010071722875019,0.00976651915153354,0.00991912101327625,0.0105295284602471,0.0109873340454752,0.0105295284602471,0.00915611170456268,0.00717228750190741,0.00457805585228129,0.00106821303219888,-0.00305203723485438,-0.00763009308713577,-0.0135815656951016,-0.0209064550587518,-0.0280787425606593,-0.0341828170303679,-0.0392186784678774,-0.0436441324584161,-0.0476117808637266,-0.0517320311307799,-0.056462688844804,-0.0613459484205708,-0.0663818098580804,-0.0720280787425608,-0.0787425606592402,-0.085762246299405,-0.0920189226308562,-0.0965969784831376,-0.10010682130322,-0.102243247367618,-0.103311460399817,-0.103616664123302,-0.103311460399817,-0.102853654814589,-0.102090645505875,-0.101327636197162,-0.100564626888448,-0.10010682130322,-0.0993438119945064,-0.0976651915153366,-0.095833969174424,-0.0941553486952542,-0.0927819319395698,-0.0914085151838853,-0.0903403021516864,-0.0895772928429728,-0.0888142835342592,-0.0877460705020602,-0.086830459331604,-0.0862200518846331,-0.085762246299405,-0.0854570425759195,-0.0849992369906914,-0.0842362276819778,-0.0833206165115215,-0.082557607202808,-0.0819471997558371,-0.0816419960323517,-0.0816419960323517,-0.0819471997558371,-0.0822524034793226,-0.0824050053410653,-0.0822524034793226,-0.0819471997558371,-0.0811841904471236,-0.0798107736914391,-0.0779795513505266,-0.0759957271478713,-0.0747749122539296,-0.074011902945216,-0.0734014954982452,-0.072943689913017,-0.0724858843277889,-0.0714176712955899,-0.0700442545399055,-0.0683656340607356,-0.0668396154433085,-0.0656188005493668,-0.0654661986876241,-0.0665344117198231,-0.0686708377842211,-0.0714176712955899,-0.0749275141156723,-0.0795055699679537,-0.0843888295437205,-0.0892720891194874,-0.0932397375247979,-0.0938501449717688,-0.0860674500228904,-0.0653135968258814,-0.0292995574546011,0.0224324736761787,0.0904929040134288,0.174881733557149,0.276056767892568,0.393254997710972,0.523271783915764,0.661223866931176,0.801617579734473,0.941706088814283,1.0807263848619,1.21638943995117,1.34198077216542,1.4408667785747,1.48237448496872,1.43949336181901,1.31207080726385,1.12269189684114,0.898367160079353,0.664275904166031,0.442850602777354,0.250572256981535,0.0970547840683655,-0.0143445750038152,-0.086830459331604,-0.128643369449107,-0.150618037540058,-0.163283992064703,-0.17320311307798,-0.182817030367771,-0.191362734625363,-0.197009003509843,-0.197619410956814,-0.192125743934076,-0.181443613612086,-0.169235464672669,-0.159926751106364,-0.155959102701053,-0.157332519456737,-0.161605371585533,-0.165573019990844,-0.166336029299558,-0.163436593926446,-0.157790325041966,-0.151838852434,-0.14848161147566,-0.149092018922631,-0.153212269189684,-0.158553334350679,-0.161757973447276,-0.16084236227682,-0.156264306424538,-0.15016023195483,-0.145734777964291,-0.144971768655578,-0.147413398443461,-0.151686250572257,-0.155348695254082,-0.156416908286281,-0.154280482221883,-0.149397222646116,-0.143598351899893,-0.139020296047612,-0.137494277430185,-0.138257286738898,-0.13947810163284,-0.139172897909355,-0.136273462536243,-0.131390202960476,-0.126506943384709,-0.12314970242637,-0.122539294979399,-0.124370517320311,-0.126964748969938,-0.128338165725622,-0.12711735083168,-0.123912711735083,-0.119487257744545,-0.115672211200977,-0.113383183274836,-0.112772775827865,-0.113077979551351,-0.113230581413093,-0.112162368380894,-0.109262933007783,-0.104837479017244,-0.100412025026705,-0.0970547840683657,-0.0946131542804823,-0.0933923393865406,-0.0924767282160843,-0.0911033114603999,-0.0882038760872884,-0.083625820235007,-0.0781321532122693,-0.072943689913017,-0.0694338470929346,-0.0672974210285367,-0.0657714024111095,-0.063940180070197,-0.0613459484205708,-0.0573783000152603,-0.0520372348542653,-0.0454753547993287,-0.0381504654356784,-0.0308255760720282,-0.0244162978788342,-0.0193804364413247,-0.0146497787273006,-0.00900350984282019,-0.00167862047916996,0.00610407446970842,0.0143445750038149,0.0224324736761787,0.0299099649015717,0.0363192430947656,0.0421181138409887,0.0486799938959254,0.0561574851213184,0.0640927819319395,0.0721806806043033,0.0802685792766671,0.0886616816725163,0.0969021822066228,0.105142682740729,0.113230581413093,0.121318480085457,0.130016786204792,0.138867694185869,0.147413398443461,0.154890889668854,0.16084236227682,0.165725621852586,0.170761483290096,0.176102548451091,0.181901419197314,0.187700289943537,0.193804364413246,0.199298031435983,0.204028689150007,0.208148939417061,0.211658782237143,0.214558217610255,0.217915458568594,0.22157790325042,0.225698153517473,0.229360598199298,0.231649626125439,0.232260033572409,0.231802227987181,0.230123607508011,0.226766366549672,0.221272699526934,0.214405615748512,0.206622920799634,0.197619410956814,0.186937280634824,0.174423927971921,0.160537158553334,0.146345185411262,0.13276361971616,0.119487257744544,0.105905692049443,0.0918663207691133,0.0770639401800701,0.0621089577292842,0.0471539752784983,0.0328094002746832,0.0187700289943536,0.00549366702273757,-0.00656188005493678,-0.0177018159621548,-0.0286891500076302,-0.0396764840531056,-0.0502060125133528,-0.0598199298031437,-0.0683656340607356,-0.0764535327330994,-0.0840836258202351,-0.0904929040134291,-0.0961391728979095,-0.101327636197162,-0.106210895772929,-0.110636349763467,-0.114603998168778,-0.117808637265375,-0.11979246146803,-0.120860674500229,-0.121318480085457,-0.121623683808943,-0.121928887532428,-0.122234091255913,-0.122386693117656,-0.122539294979399,-0.122844498702884,-0.123454906149855,-0.124217915458569,-0.124065313596826,-0.123454906149855,-0.12314970242637,-0.122997100564627,-0.122844498702884,-0.122386693117656,-0.121928887532428,-0.121318480085457,-0.120402868915001,-0.119182054021059,-0.117961239127117,-0.116587822371433,-0.115061803754006,-0.113535785136579,-0.112314970242637,-0.111399359072181,-0.11078895162521,-0.110331146039982,-0.110025942316496,-0.110025942316496,-0.110025942316496,-0.109873340454754,-0.109873340454754,-0.110025942316496,-0.110025942316496,-0.109720738593011,-0.109415534869526,-0.108957729284297,-0.108347321837327,-0.107584312528613,-0.106668701358157,-0.106210895772929,-0.106058293911186,-0.106210895772929,-0.106516099496414,-0.106821303219899,-0.106973905081642,-0.106821303219899,-0.105447886464215,-0.10346406226156,-0.101480238058904,-0.0996490157179919,-0.0987334045475356,-0.0987334045475356,-0.0994964138562491,-0.100259423164963,-0.100259423164963,-0.10010682130322,-0.0999542194414773,-0.0996490157179919,-0.099038608271021,-0.0982755989623074,-0.0978177933770793,-0.0972073859301085,-0.0961391728979095,-0.0952235617274532,-0.094765756142225,-0.094765756142225,-0.0950709598657105,-0.0950709598657105,-0.0950709598657105,-0.0950709598657105,-0.0950709598657105,-0.0943079505569969,-0.0935449412482833,-0.0927819319395698,-0.0920189226308562,-0.0914085151838853,-0.0912559133221426,-0.0906455058751718,-0.0894246909812301,-0.0883564779490311,-0.0875934686403175,-0.0866778574698612,-0.0851518388524341,-0.0827102090645507,-0.0801159774149246,-0.0778269494887839,-0.0758431252861286,-0.0744697085304442,-0.074011902945216,-0.074011902945216,-0.0735540973599879,-0.0714176712955899,-0.0669922173050512,-0.0599725316648864,-0.0505112162368382,-0.0398290859148483,-0.0282313444224021,-0.016023195482985,-0.00381504654356794,0.00656188005493656,0.0146497787273004,0.0193804364413245,0.0209064550587516,0.0202960476117808,0.0180070196856401,0.0141919731420722,0.00885090798107726,0.0024416297878833,-0.00350984282008252,-0.00763009308713577,-0.00976651915153376,-0.0112925377689609,-0.0134289638333589,-0.0161757973447277,-0.0183122234091257,-0.0186174271326111,-0.0166336029299559,-0.0137341675568443,-0.0114451396307036,-0.0108347321837328,-0.0115977414924463,-0.0135815656951016,-0.0164810010682131,-0.0195330383030674,-0.0225850755379217,-0.0254845109110332,-0.0291469555928583,-0.0332672058599116,-0.0372348542652221,-0.0405920952235618,-0.0439493361819015,-0.0474591790019839,-0.0508164199603236,-0.0541736609186633,-0.057530901877003,-0.0608881428353427,-0.0656188005493668,-0.0724858843277889,-0.0808789867236381,-0.0891194872577447,-0.0959865710361667,-0.101327636197162,-0.104990080878987,-0.107279108805128,-0.108805127422555,-0.109720738593011,-0.110178544178239,-0.110025942316496,-0.110025942316496,-0.109720738593011,-0.108652525560812,-0.107126506943385,-0.105600488325958,-0.104990080878987,-0.104990080878987,-0.104837479017244,-0.103921867846788,-0.102090645505875,-0.0999542194414773,-0.0981229971005647,-0.0967495803448803,-0.0956813673126813,-0.0943079505569969,-0.0927819319395698,-0.0912559133221426,-0.0900350984282009,-0.0885090798107738,-0.0862200518846331,-0.0834732183732643,-0.0805737830001527,-0.0778269494887839,-0.0752327178391577,-0.072943689913017,-0.0714176712955899,-0.0703494582633909,-0.0703494582633909,-0.0706546619868764,-0.0711124675721045,-0.0717228750190753,-0.0714176712955899,-0.0700442545399055,-0.0680604303372502,-0.0665344117198231,-0.0651609949641387,-0.0642453837936824,-0.0640927819319397,-0.0651609949641387,-0.0666870135815658,-0.0679078284755075,-0.0686708377842211,-0.0691286433694492,-0.0691286433694492,-0.0692812452311919,-0.0701968564016482,-0.0721806806043035,-0.0749275141156723,-0.0784373569357547,-0.082557607202808,-0.0866778574698612,-0.0903403021516864,-0.0932397375247979,-0.0949183580039678,-0.0920189226308562,-0.0792003662444683,-0.0526476423012362,-0.0105295284602473,0.047306577140241,0.121776285670685,0.213490004578056,0.321837326415382,0.444071417671295,0.576682435525713,0.71539752784984,0.85548603692965,0.994506332977262,1.13108499923699,1.26262780405921,1.3822676636655,1.47092934533801,1.49763467114299,1.44147718602167,1.30764535327331,1.1171982298184,0.895162520982756,0.665954524645201,0.450328094002747,0.262780405920952,0.112162368380894,0.00228902792614059,-0.0689760415077065,-0.110483747901725,-0.132611017854418,-0.144666564932092,-0.152296658019228,-0.157942926903708,-0.16252098275599,-0.164962612543873,-0.162826186479475,-0.153822676636655,-0.139935907218068,-0.12543873035251,-0.114451396307035,-0.109720738593011,-0.111551960933923,-0.117198229818404,-0.122386693117656,-0.124370517320311,-0.122844498702884,-0.119334655882802,-0.115977414924462,-0.114909201892263,-0.116893026094918,-0.121013276361972,-0.125133526629025,-0.126812147108195,-0.125133526629025,-0.121013276361972,-0.11643522050969,-0.113535785136579,-0.113840988860064,-0.116587822371433,-0.120250267053258,-0.122691896841142,-0.122691896841142,-0.120097665191515,-0.115672211200977,-0.111551960933923,-0.109568136731268,-0.110178544178239,-0.112162368380894,-0.11414619258355,-0.11475660003052,-0.113383183274836,-0.110331146039982,-0.106973905081642,-0.104837479017244,-0.104837479017244,-0.106363497634671,-0.107889516252098,-0.108499923699069,-0.107584312528613,-0.105447886464215,-0.102548451091103,-0.0993438119945064,-0.0970547840683657,-0.0955287654509386,-0.0949183580039678,-0.0949183580039678,-0.0946131542804823,-0.0932397375247979,-0.0912559133221426,-0.0888142835342592,-0.0860674500228904,-0.0837784220967497,-0.0822524034793226,-0.081489394170609,-0.0801159774149246,-0.0773691439035557,-0.072943689913017,-0.0677552266137648,-0.0630245688997407,-0.0590569204944301,-0.0558522813978332,-0.0534106516099497,-0.0512742255455518,-0.0485273920341829,-0.0441019380436442,-0.0370822524034794,-0.0285365481458875,-0.0204486494735237,-0.0132763619716162,-0.00732488936365035,-0.00228902792614081,0.00289943537311144,0.00885090798107726,0.0154127880360139,0.0225850755379215,0.0299099649015717,0.0366244468182511,0.0424233175644742,0.0477643827254691,0.0531054478864641,0.0592095223561726,0.0663818098580801,0.0750801159774148,0.084541431405463,0.0935449412482831,0.10178544178239,0.108957729284297,0.115672211200977,0.122539294979399,0.130169388066534,0.137952083015413,0.145429574240806,0.151991454295742,0.157790325041965,0.163283992064703,0.169235464672669,0.17549214100412,0.181596215473829,0.18785289180528,0.194414771860217,0.201281855638639,0.207996337555318,0.213947810163284,0.219441477186022,0.224324736761788,0.229055394475812,0.233023042881123,0.23622768197772,0.238821913627346,0.240042728521288,0.239737524797802,0.23790630245689,0.234854265222036,0.23058141309324,0.22554555165573,0.219441477186022,0.212269189684114,0.203723485426522,0.193956966274988,0.183122234091256,0.170761483290096,0.157179917594995,0.142835342591179,0.128185563863879,0.113840988860064,0.100259423164962,0.0868304593316037,0.073401495498245,0.0595147260796581,0.0448649473523576,0.0305203723485425,0.0169388066534411,0.00396764840531043,-0.00885090798107748,-0.02136426064398,-0.0334198077216543,-0.0445597436288724,-0.0546314665038915,-0.0637875782084543,-0.0724858843277889,-0.08042118113841,-0.0874408667785748,-0.0932397375247979,-0.097970395238822,-0.10178544178239,-0.104684877155501,-0.106516099496414,-0.10743171066687,-0.107889516252098,-0.108499923699069,-0.110025942316496,-0.112620173966122,-0.114909201892263,-0.116282618647948,-0.116740424233176,-0.11643522050969,-0.115824813062719,-0.11475660003052,-0.113077979551351,-0.111551960933923,-0.110483747901725,-0.109720738593011,-0.108652525560812,-0.10743171066687,-0.106363497634671,-0.105600488325958,-0.104684877155501,-0.104074469708531,-0.103616664123302,-0.103006256676332,-0.102090645505875,-0.101022432473676,-0.0999542194414773,-0.0991912101327637,-0.0985808026857929,-0.0975125896535939,-0.0965969784831376,-0.0959865710361667,-0.0953761635891959,-0.0941553486952542,-0.0921715244925989,-0.0898824965664582,-0.0874408667785748,-0.0853044407141768,-0.0837784220967497,-0.0828628109262934,-0.0816419960323517,-0.0801159774149246,-0.0785899587974974,-0.0776743476270412,-0.0775217457652984,-0.0778269494887839,-0.078284755074012,-0.0790477643827256,-0.0799633755531819,-0.0810315885853808,-0.0819471997558371,-0.0820998016175798,-0.0816419960323517,-0.0811841904471236,-0.0810315885853808,-0.0816419960323517,-0.0830154127880361,-0.084694033267206,-0.0859148481611477,-0.0865252556081185,-0.0865252556081185,-0.085762246299405,-0.0843888295437205,-0.0831680146497788,-0.0817945978940944,-0.0807263848618954,-0.0799633755531819,-0.0790477643827256,-0.0773691439035557,-0.0759957271478713,-0.0746223103921869,-0.0732488936365025,-0.0718754768808181,-0.0712650694338472,-0.0712650694338472,-0.0721806806043035,-0.0735540973599879,-0.0746223103921869,-0.0755379215626432,-0.0759957271478713,-0.0755379215626432,-0.0743171066687015,-0.0727910880512743,-0.0711124675721045,-0.0695864489546774,-0.0683656340607356,-0.0676026247520221,-0.0654661986876241,-0.0607355409736,-0.0537158553334352,-0.0459331603845568,-0.0376926598504503,-0.0291469555928583,-0.0206012513352664,-0.012818556386388,-0.00549366702273779,0.000763009308713455,0.00610407446970842,0.00991912101327625,0.0119029452159315,0.0123607508011597,0.0117503433541888,0.00976651915153354,0.00610407446970842,0.00167862047916973,-0.00198382420265538,-0.00366244468182523,-0.00320463909659709,-0.00122081489394182,0.000763009308713455,0.00289943537311144,0.00503586143750943,0.00747749122539284,0.00961391728979082,0.0105295284602471,0.010071722875019,0.00808789867236369,0.00427285212879586,-0.000457805585228251,-0.0056462688844805,-0.00961391728979104,-0.0125133526629026,-0.0154127880360142,-0.0199908438882955,-0.0260949183580041,-0.0320463909659699,-0.0383030672974211,-0.0447123454906151,-0.051121623683809,-0.0572256981535176,-0.0630245688997407,-0.0688234396459638,-0.0752327178391577,-0.0817945978940944,-0.0878986723638029,-0.0933923393865406,-0.0976651915153366,-0.101175034335419,-0.104074469708531,-0.106210895772929,-0.107584312528613,-0.108042118113841,-0.106821303219899,-0.104532275293759,-0.102701052952846,-0.101632839920647,-0.100869830611934,-0.100412025026705,-0.10010682130322,-0.100259423164963,-0.101175034335419,-0.102090645505875,-0.102548451091103,-0.102243247367618,-0.102090645505875,-0.102090645505875,-0.102548451091103,-0.103006256676332,-0.103006256676332,-0.102090645505875,-0.100717228750191,-0.0987334045475356,-0.0970547840683657,-0.0962917747596522,-0.0955287654509386,-0.0944605524187396,-0.0927819319395698,-0.0909507095986572,-0.0894246909812301,-0.0885090798107738,-0.0878986723638029,-0.0872882649168321,-0.0863726537463758,-0.0856096444376622,-0.0856096444376622,-0.0862200518846331,-0.086830459331604,-0.0871356630550894,-0.0863726537463758,-0.0843888295437205,-0.081489394170609,-0.0781321532122693,-0.0744697085304442,-0.0708072638486191,-0.0676026247520221,-0.0648557912406532,-0.0625667633145125,-0.0608881428353427,-0.0602777353883718,-0.0611933465588281,-0.0636349763467115,-0.0677552266137648,-0.0730962917747598,-0.0785899587974974,-0.0827102090645507,-0.0842362276819778,-0.0801159774149246,-0.0657714024111095,-0.0372348542652221,0.00732488936365012,0.06806043033725,0.144513963070349,0.236380283839463,0.342591179612391,0.462383641080421,0.593468640317412,0.730199908438883,0.867236380283839,1.00244162978788,1.13474744391882,1.26247520219747,1.37540057988707,1.44590264001221,1.44056157485121,1.34747443918816,1.18373264153823,0.979551350526476,0.762398901266595,0.55287654509385,0.364413245841599,0.205402105905692,0.0819471997558369,-0.0044254539905388,-0.0581413093239739,-0.0886616816725165,-0.106668701358157,-0.121013276361972,-0.134594842057073,-0.145276972379063,-0.150770639401801,-0.150465435678315,-0.144666564932092,-0.134900045780559,-0.123760109873341,-0.115214405615749,-0.112314970242637,-0.115824813062719,-0.122997100564627,-0.129864184343049,-0.133221425301389,-0.131237601098734,-0.125133526629025,-0.117961239127117,-0.112620173966122,-0.110636349763467,-0.11246757210438,-0.115977414924462,-0.118724248435831,-0.118571646574088,-0.115214405615749,-0.109873340454754,-0.104379673432016,-0.101175034335419,-0.101480238058904,-0.103921867846788,-0.106516099496414,-0.107126506943385,-0.104684877155501,-0.0998016175797346,-0.094765756142225,-0.0917137189073708,-0.0920189226308562,-0.0952235617274532,-0.0994964138562491,-0.102548451091103,-0.10346406226156,-0.101632839920647,-0.0981229971005647,-0.0944605524187396,-0.0929345338013125,-0.0944605524187396,-0.0975125896535939,-0.10010682130322,-0.100259423164963,-0.0970547840683657,-0.0918663207691135,-0.0865252556081185,-0.082557607202808,-0.0811841904471236,-0.0820998016175798,-0.0834732183732643,-0.0834732183732643,-0.0813367923088663,-0.0770639401800703,-0.0712650694338472,-0.0653135968258814,-0.0595147260796583,-0.0544788646421487,-0.0508164199603236,-0.0480695864489548,-0.0457805585228141,-0.0430337250114452,-0.0396764840531056,-0.0364718449565086,-0.033572409583397,-0.0312833816572563,-0.0300625667633146,-0.0297573630398292,-0.0289943537311156,-0.0268579276667176,-0.0230428811231498,-0.0186174271326111,-0.0141919731420724,-0.0102243247367619,-0.00732488936365035,-0.00488325957576694,-0.00183122234091267,0.0024416297878833,0.00778269494887826,0.0144971768655576,0.0224324736761787,0.0306729742102853,0.0387608728826491,0.0459331603845566,0.0524950404394932,0.0587517167709445,0.0657714024111093,0.0737066992217304,0.0819471997558369,0.0891194872577444,0.0947657561422248,0.0998016175797344,0.103921867846788,0.107736914390355,0.111857164657409,0.116740424233176,0.12208148939417,0.127575156416908,0.133374027163131,0.139020296047612,0.144056157485121,0.14848161147566,0.152754463604456,0.157332519456737,0.162215779032504,0.167556844193499,0.172592705631009,0.177018159621547,0.180680604303372,0.183732641538227,0.186632076911338,0.189684114146192,0.193041355104532,0.196551197924615,0.199908438882954,0.20250267053258,0.204333892873493,0.205402105905692,0.20585991149092,0.205249504043949,0.20418129101175,0.20250267053258,0.199298031435983,0.194567373721959,0.188005493667023,0.179764993132916,0.170151075843125,0.160384556691592,0.150312833816572,0.140546314665039,0.131695406683961,0.122234091255913,0.111246757210438,0.0985808026857927,0.0854570425759193,0.0730962917747595,0.0619563558675415,0.0514268274072943,0.0410499008087898,0.0312833816572561,0.0219746680909506,0.0126659545246451,0.00350984282008229,-0.00534106516099507,-0.013886769418587,-0.0219746680909508,-0.0294521593163438,-0.0360140393712804,-0.0415077063940181,-0.0466961696932704,-0.052189836716008,-0.0572256981535176,-0.0613459484205708,-0.0651609949641387,-0.0685182359224784,-0.0711124675721045,-0.0732488936365025,-0.0749275141156723,-0.0755379215626432,-0.0749275141156723,-0.072943689913017,-0.0705020601251336,-0.0683656340607356,-0.0663818098580804,-0.0643979856554251,-0.0630245688997407,-0.0621089577292844,-0.0616511521440563,-0.0611933465588281,-0.0607355409736,-0.059667327941401,-0.0581413093239739,-0.0566152907065467,-0.0555470776743477,-0.0555470776743477,-0.0563100869830613,-0.0569204944300322,-0.0570730962917749,-0.0569204944300322,-0.0566152907065467,-0.0561574851213186,-0.0561574851213186,-0.0567678925682894,-0.0578361056004884,-0.0593621242179156,-0.0601251335266291,-0.0604303372501146,-0.0605829391118573,-0.0601251335266291,-0.0584465130474593,-0.0556996795360904,-0.0526476423012362,-0.0502060125133528,-0.0491377994811538,-0.0488325957576684,-0.0486799938959256,-0.0480695864489548,-0.0468487715550131,-0.0451701510758432,-0.0430337250114452,-0.0407446970853046,-0.038913474744392,-0.0376926598504503,-0.0364718449565086,-0.0352510300625669,-0.0347932244773387,-0.0355562337860523,-0.036777048679994,-0.0373874561269649,-0.0373874561269649,-0.0370822524034794,-0.036777048679994,-0.036777048679994,-0.037845261712193,-0.0402868915000764,-0.0434915305966734,-0.0465435678315277,-0.0488325957576684,-0.0505112162368382,-0.0515794292690372,-0.052189836716008,-0.0517320311307799,-0.0502060125133528,-0.0480695864489548,-0.0460857622462995,-0.044254539905387,-0.042118113840989,-0.0392186784678774,-0.035708835647795,-0.031435983518999,-0.0264001220814895,-0.020296047611781,-0.0131237601098735,-0.00549366702273779,0.00167862047916973,0.00854570425759183,0.0151075843125285,0.021211658782237,0.0259423164962611,0.02868915000763,0.0289943537311154,0.0273157332519456,0.0247215016023194,0.0216694643674652,0.0173966122386692,0.0123607508011597,0.00732488936365012,0.00335724095833958,0.000915611170456168,0.000152601861742602,0.000305203723485315,0.00106821303219888,0.00183122234091245,0.00259423164962601,0.0024416297878833,0.00122081489394159,-0.000763009308713677,-0.00366244468182523,-0.00732488936365035,-0.0120555470776745,-0.0169388066534413,-0.0210590569204945,-0.0247215016023197,-0.0286891500076302,-0.0340302151686252,-0.0402868915000764,-0.0465435678315277,-0.0531054478864643,-0.059667327941401,-0.0654661986876241,-0.0709598657103618,-0.0767587364565849,-0.0830154127880361,-0.0894246909812301,-0.0953761635891959,-0.100259423164963,-0.10346406226156,-0.1057530901877,-0.107126506943385,-0.107279108805128,-0.106363497634671,-0.104532275293759,-0.101938043644133,-0.0988860064092783,-0.0955287654509386,-0.0923241263543416,-0.0895772928429728,-0.0872882649168321,-0.085762246299405,-0.0843888295437205,-0.0828628109262934,-0.0808789867236381,-0.0788951625209829,-0.0770639401800703,-0.0756905234243859,-0.0747749122539296,-0.0743171066687015,-0.0744697085304442,-0.075080115977415,-0.076148329009614,-0.0776743476270412,-0.0796581718296964,-0.0824050053410653,-0.0856096444376622,-0.0889668853960019,-0.0918663207691135,-0.0940027468335115,-0.0953761635891959,-0.0956813673126813,-0.0949183580039678,-0.0938501449717688,-0.0935449412482833,-0.0941553486952542,-0.0953761635891959,-0.0967495803448803,-0.0976651915153366,-0.0981229971005647,-0.0982755989623074,-0.0978177933770793,-0.0978177933770793,-0.0984282008240502,-0.0994964138562491,-0.100869830611934,-0.101480238058904,-0.100869830611934,-0.0999542194414773,-0.0999542194414773,-0.101480238058904,-0.104379673432016,-0.108347321837327,-0.112925377689608,-0.117198229818404,-0.120402868915001,-0.122234091255913,-0.121776285670685,-0.115367007477491,-0.0988860064092783,-0.0686708377842211,-0.0227376773996644,0.0389134747443918,0.116130016786205,0.20921715244926,0.317717076148329,0.440103769265985,0.573783000152602,0.713108499923699,0.853502212726995,0.992522508774607,1.12803296200214,1.25667633145124,1.36639707004425,1.42713261101785,1.40546314665039,1.29375858385472,1.11567221120098,0.902182206622921,0.679230886616817,0.467419502517931,0.281550434915306,0.130321989928277,0.0177018159621546,-0.0572256981535176,-0.101480238058904,-0.125591332214253,-0.140851518388524,-0.155348695254082,-0.172287501907523,-0.18953151228445,-0.202960476117809,-0.208759346864032,-0.207233328246605,-0.199908438882954,-0.189989317869678,-0.181443613612086,-0.177933770792004,-0.179917594994659,-0.184648252708683,-0.188615901113994,-0.18953151228445,-0.186479475049596,-0.180222798718144,-0.173660918663208,-0.170151075843125,-0.171829696322295,-0.177475965206776,-0.18388524339997,-0.18785289180528,-0.187700289943537,-0.184190447123455,-0.179307187547688,-0.175186937280635,-0.173966122386693,-0.175644742865863,-0.17884938196246,-0.181748817335572,-0.182359224782542,-0.179001983824203,-0.172287501907523,-0.164962612543873,-0.159468945521135,-0.157332519456737,-0.158553334350679,-0.160994964138563,-0.162215779032504,-0.160689760415077,-0.156874713871509,-0.152296658019228,-0.148634213337403,-0.14680299099649,-0.146192583549519,-0.146039981687777,-0.144971768655578,-0.142072333282466,-0.137036471844957,-0.130169388066535,-0.123302304288112,-0.117808637265375,-0.11475660003052,-0.11414619258355,-0.11475660003052,-0.115367007477491,-0.115214405615749,-0.11414619258355,-0.112925377689608,-0.111857164657409,-0.111551960933923,-0.111704562795666,-0.112162368380894,-0.112009766519152,-0.110178544178239,-0.106821303219899,-0.101938043644133,-0.0961391728979095,-0.0904929040134291,-0.0860674500228904,-0.0827102090645507,-0.0802685792766673,-0.0781321532122693,-0.0752327178391577,-0.0712650694338472,-0.0659240042728522,-0.0605829391118573,-0.0560048832595759,-0.0524950404394935,-0.0492904013428965,-0.0459331603845568,-0.0419655119792463,-0.0375400579887076,-0.0328094002746835,-0.0279261406989166,-0.0228902792614071,-0.0178544178238976,-0.0129711582481307,-0.00808789867236391,-0.00305203723485438,0.00228902792614059,0.00854570425759183,0.0158705936212421,0.0238058904318632,0.0317411872424842,0.0384556691591636,0.0439493361819013,0.0491377994811536,0.0550892720891194,0.0621089577292842,0.0694338470929344,0.0764535327330992,0.0825576072028078,0.0878986723638027,0.0924767282160841,0.0969021822066228,0.101632839920647,0.106210895772928,0.110941553486952,0.115824813062719,0.121013276361971,0.125743934075996,0.130169388066534,0.134289638333588,0.138104684877155,0.14115672211201,0.143750953761636,0.145582176102548,0.14680299099649,0.147566000305204,0.147871204028689,0.147566000305204,0.145734777964291,0.142835342591179,0.138867694185869,0.134289638333588,0.128643369449107,0.121928887532428,0.113688386998321,0.104532275293758,0.0946131542804821,0.084541431405463,0.0743171066687012,0.0639401800701967,0.0535632534716922,0.0434915305966732,0.0338776133068822,0.0241110941553486,0.0138867694185868,0.00320463909659687,-0.00701968564016492,-0.0175492141004121,-0.0283839462841448,-0.0395238821913628,-0.0505112162368382,-0.0611933465588281,-0.0715702731573326,-0.0807263848618954,-0.0878986723638029,-0.0935449412482833,-0.0975125896535939,-0.0998016175797346,-0.101938043644133,-0.104684877155501,-0.107584312528613,-0.11078895162521,-0.113993590721807,-0.117350831680147,-0.120708072638486,-0.123760109873341,-0.126201739661224,-0.127727758278651,-0.127727758278651,-0.126964748969938,-0.125591332214253,-0.124217915458569,-0.122691896841142,-0.121318480085457,-0.120250267053258,-0.11979246146803,-0.119945063329773,-0.119945063329773,-0.119182054021059,-0.117656035403632,-0.115367007477491,-0.113077979551351,-0.111246757210438,-0.110331146039982,-0.109568136731268,-0.108957729284297,-0.108805127422555,-0.10911033114604,-0.109415534869526,-0.109415534869526,-0.108499923699069,-0.106516099496414,-0.103769265985045,-0.100869830611934,-0.0988860064092783,-0.0973599877918512,-0.0965969784831376,-0.0961391728979095,-0.0961391728979095,-0.0955287654509386,-0.0946131542804823,-0.0933923393865406,-0.0921715244925989,-0.0912559133221426,-0.0907981077369145,-0.0904929040134291,-0.0901877002899436,-0.0901877002899436,-0.0904929040134291,-0.0907981077369145,-0.0909507095986572,-0.0906455058751718,-0.0903403021516864,-0.0900350984282009,-0.0894246909812301,-0.0883564779490311,-0.0872882649168321,-0.0859148481611477,-0.0840836258202351,-0.0820998016175798,-0.0798107736914391,-0.0775217457652984,-0.075080115977415,-0.0720280787425608,-0.0682130321989929,-0.0633297726232261,-0.0572256981535176,-0.0495956050663819,-0.0407446970853046,-0.031435983518999,-0.0222798718144362,-0.013886769418587,-0.00701968564016492,-0.00198382420265538,0.00198382420265516,0.00503586143750943,0.00671448191667927,0.00747749122539284,0.00793529681062098,0.00732488936365012,0.00518846329925214,0.00183122234091245,-0.00122081489394182,-0.00305203723485438,-0.0033572409583398,-0.00320463909659709,-0.0033572409583398,-0.00396764840531066,-0.00427285212879608,-0.00381504654356794,-0.00274683351136895,-0.0021364260643981,-0.00228902792614081,-0.00366244468182523,-0.00595147260796593,-0.00900350984282019,-0.0123607508011599,-0.016023195482985,-0.0201434457500383,-0.0253319090492905,-0.0320463909659699,-0.0392186784678774,-0.0457805585228141,-0.0515794292690372,-0.0573783000152603,-0.0633297726232261,-0.0692812452311919,-0.0753853197009005,-0.0811841904471236,-0.0866778574698612,-0.0921715244925989,-0.0982755989623074,-0.104227071570273,-0.109568136731268,-0.114603998168778,-0.119334655882802,-0.122844498702884,-0.12482832290554,-0.125896535937739,-0.126506943384709,-0.126812147108195,-0.126659545246452,-0.126506943384709,-0.125896535937739,-0.12482832290554,-0.123302304288112,-0.122081489394171,-0.121623683808943,-0.121623683808943,-0.121013276361972,-0.119182054021059,-0.115672211200977,-0.111704562795666,-0.107736914390356,-0.104684877155501,-0.102548451091103,-0.100869830611934,-0.0994964138562491,-0.097970395238822,-0.0964443766213949,-0.0953761635891959,-0.0950709598657105,-0.0949183580039678,-0.0943079505569969,-0.0926293300778271,-0.0903403021516864,-0.0885090798107738,-0.0874408667785748,-0.0871356630550894,-0.0869830611933467,-0.086830459331604,-0.0865252556081185,-0.0856096444376622,-0.0839310239584924,-0.081489394170609,-0.0785899587974974,-0.0756905234243859,-0.0732488936365025,-0.0714176712955899,-0.0700442545399055,-0.0686708377842211,-0.0671448191667939,-0.0660766061345949,-0.0654661986876241,-0.0657714024111095,-0.0669922173050512,-0.0695864489546774,-0.0734014954982452,-0.0784373569357547,-0.0840836258202351,-0.0891194872577447,-0.0923241263543416,-0.0930871356630552,-0.0889668853960019,-0.0755379215626432,-0.0492904013428965,-0.00839310239584934,0.0482221883106973,0.1214710819472,0.2115061803754,0.317259270563101,0.437204333892873,0.568594536853349,0.706546619868762,0.845719517778117,0.983976804517015,1.11979246146803,1.25026705325805,1.36639707004425,1.44666564932092,1.45994201129254,1.38745612696475,1.23836410804212,1.03815046543568,0.813520524950404,0.588280177018159,0.381504654356783,0.206012513352663,0.0686708377842209,-0.0282313444224021,-0.0894246909812301,-0.123760109873341,-0.142224935144209,-0.153975278498398,-0.16419960323516,-0.173660918663208,-0.180985808026858,-0.184648252708683,-0.183122234091256,-0.175949946589348,-0.164352205096902,-0.152601861742713,-0.144971768655578,-0.143293148176408,-0.146192583549519,-0.150312833816573,-0.152296658019228,-0.150465435678315,-0.14451396307035,-0.136426064397986,-0.129864184343049,-0.127575156416908,-0.129711582481306,-0.133679230886617,-0.136883869983214,-0.136731268121471,-0.133068823439646,-0.127422554555166,-0.122234091255913,-0.119487257744545,-0.11979246146803,-0.122386693117656,-0.125591332214253,-0.12711735083168,-0.125591332214253,-0.121013276361972,-0.115061803754006,-0.110178544178239,-0.107889516252098,-0.108194719975584,-0.109873340454754,-0.111399359072181,-0.110941553486953,-0.108347321837327,-0.104074469708531,-0.0996490157179919,-0.0964443766213949,-0.0952235617274532,-0.095833969174424,-0.0978177933770793,-0.0996490157179919,-0.0998016175797346,-0.097970395238822,-0.094765756142225,-0.0918663207691135,-0.0904929040134291,-0.0907981077369145,-0.0920189226308562,-0.0924767282160843,-0.0912559133221426,-0.0882038760872884,-0.083625820235007,-0.0785899587974974,-0.0744697085304442,-0.0714176712955899,-0.0691286433694492,-0.0666870135815658,-0.0633297726232261,-0.058599114909202,-0.0528002441629789,-0.0473065771402412,-0.0427285212879598,-0.0395238821913628,-0.0373874561269649,-0.035708835647795,-0.0334198077216543,-0.0305203723485428,-0.0271631313902031,-0.0230428811231498,-0.0178544178238976,-0.0120555470776745,-0.00656188005493678,-0.00183122234091267,0.0024416297878833,0.0070196856401647,0.0119029452159315,0.0178544178238973,0.0250267053258049,0.0325041965511978,0.0393712803296199,0.0456279566610712,0.0518846329925224,0.0582939111857163,0.0650083931023957,0.0729436899130168,0.0820998016175796,0.0911033114603997,0.0994964138562489,0.107584312528613,0.115061803754006,0.121928887532428,0.128338165725622,0.134900045780558,0.141461925835495,0.148176407752174,0.154433084083626,0.160537158553334,0.165878223714329,0.170608881428353,0.175644742865863,0.180985808026858,0.186326873187853,0.191667938348848,0.197161605371585,0.202655272394323,0.208148939417061,0.213947810163284,0.219746680909507,0.224935144208759,0.229055394475812,0.231954829848924,0.234091255913322,0.235159468945521,0.234701663360293,0.232412635434152,0.228597588890584,0.223714329314818,0.217762856706852,0.210590569204944,0.202350068670838,0.192888753242789,0.181291011750343,0.168014649778727,0.153517472913169,0.138257286738898,0.122997100564627,0.107584312528613,0.0923241263543414,0.0772165420418128,0.0628719670379977,0.0489851976194108,0.0352510300625666,0.0215168625057225,0.0082405005341064,-0.0044254539905388,-0.0167862047916986,-0.0286891500076302,-0.0398290859148483,-0.0500534106516101,-0.0592095223561729,-0.0674500228902794,-0.0744697085304442,-0.0805737830001527,-0.0859148481611477,-0.0907981077369145,-0.0949183580039678,-0.0985808026857929,-0.102243247367618,-0.105905692049443,-0.109568136731268,-0.112314970242637,-0.11414619258355,-0.115214405615749,-0.115672211200977,-0.115824813062719,-0.116282618647948,-0.116740424233176,-0.117045627956661,-0.117503433541889,-0.117961239127117,-0.117961239127117,-0.117656035403632,-0.116740424233176,-0.115214405615749,-0.113230581413093,-0.111399359072181,-0.109873340454754,-0.108499923699069,-0.107584312528613,-0.107279108805128,-0.107584312528613,-0.108042118113841,-0.108042118113841,-0.108042118113841,-0.107584312528613,-0.106668701358157,-0.105600488325958,-0.104532275293759,-0.10346406226156,-0.102090645505875,-0.10010682130322,-0.0976651915153366,-0.0950709598657105,-0.0927819319395698,-0.0912559133221426,-0.0901877002899436,-0.0897298947047155,-0.0895772928429728,-0.0895772928429728,-0.0898824965664582,-0.0906455058751718,-0.0917137189073708,-0.0930871356630552,-0.0946131542804823,-0.0961391728979095,-0.0970547840683657,-0.0972073859301085,-0.0970547840683657,-0.096902182206623,-0.096902182206623,-0.096902182206623,-0.096902182206623,-0.0965969784831376,-0.0965969784831376,-0.096902182206623,-0.0975125896535939,-0.097970395238822,-0.0981229971005647,-0.0981229971005647,-0.0975125896535939,-0.0959865710361667,-0.0941553486952542,-0.0923241263543416,-0.0907981077369145,-0.0897298947047155,-0.0889668853960019,-0.0874408667785748,-0.0851518388524341,-0.082557607202808,-0.0799633755531819,-0.0776743476270412,-0.0756905234243859,-0.0727910880512743,-0.0689760415077065,-0.063940180070197,-0.0573783000152603,-0.0492904013428965,-0.0407446970853046,-0.0320463909659699,-0.0236532885701207,-0.0158705936212423,-0.00915611170456291,-0.0044254539905388,-0.00183122234091267,-0.00183122234091267,-0.00320463909659709,-0.00518846329925236,-0.00854570425759205,-0.0135815656951016,-0.019227834579582,-0.0236532885701207,-0.0259423164962614,-0.0262475202197468,-0.0260949183580041,-0.0262475202197468,-0.0271631313902031,-0.0282313444224021,-0.0289943537311156,-0.0291469555928583,-0.0291469555928583,-0.0296047611780865,-0.0311307797955136,-0.0338776133068825,-0.0370822524034794,-0.0401342896383337,-0.0427285212879598,-0.0453227529375859,-0.0489851976194111,-0.0546314665038915,-0.0613459484205708,-0.0674500228902794,-0.0730962917747598,-0.0787425606592402,-0.0843888295437205,-0.0897298947047155,-0.0946131542804823,-0.0996490157179919,-0.104379673432016,-0.109720738593011,-0.115824813062719,-0.121776285670685,-0.126506943384709,-0.129406378757821,-0.130627193651763,-0.131084999236991,-0.131084999236991,-0.131237601098734,-0.130779795513505,-0.129711582481306,-0.128490767587365,-0.127422554555166,-0.126812147108195,-0.127422554555166,-0.129101175034336,-0.130627193651763,-0.130932397375248,-0.129711582481306,-0.127880360140394,-0.126201739661224,-0.12482832290554,-0.123607508011598,-0.122539294979399,-0.121776285670685,-0.121318480085457,-0.1214710819472,-0.1214710819472,-0.120860674500229,-0.119639859606287,-0.11811384098886,-0.116740424233176,-0.115519609339234,-0.114603998168778,-0.113993590721807,-0.113688386998321,-0.113535785136579,-0.113535785136579,-0.113535785136579,-0.112925377689608,-0.111246757210438,-0.10911033114604,-0.106973905081642,-0.104684877155501,-0.101632839920647,-0.0988860064092783,-0.0970547840683657,-0.0956813673126813,-0.0953761635891959,-0.095833969174424,-0.0964443766213949,-0.0964443766213949,-0.0959865710361667,-0.0950709598657105,-0.0930871356630552,-0.0906455058751718,-0.0886616816725165,-0.0875934686403175,-0.0874408667785748,-0.0885090798107738,-0.0907981077369145,-0.0940027468335115,-0.0984282008240502,-0.103616664123302,-0.108652525560812,-0.112925377689608,-0.113840988860064,-0.106516099496414,-0.0856096444376622,-0.0486799938959256,0.00396764840531043,0.0726384861895314,0.157637723180223,0.25927056310087,0.375858385472303,0.504349153059667,0.640317411872425,0.779032504196551,0.918205402105906,1.05676789256829,1.19166793834885,1.31695406683962,1.41645048069586,1.46085762246299,1.42499618495346,1.30871356630551,1.13047459179002,0.914848161147566,0.68670837784221,0.467572104379673,0.274378147413398,0.117350831680146,0.000610407446970742,-0.0767587364565849,-0.121623683808943,-0.144666564932092,-0.155501297115825,-0.161757973447276,-0.166641233023043,-0.170761483290096,-0.17320311307798,-0.172440103769266,-0.166793834884786,-0.156722112009767,-0.14512437051732,-0.135968258812758,-0.13215321226919,-0.133679230886617,-0.13779948115367,-0.141767129558981,-0.14283534259118,-0.140088509079811,-0.134594842057073,-0.129406378757821,-0.127269952693423,-0.129253776896078,-0.134594842057073,-0.140241110941554,-0.143140546314665,-0.141614527697238,-0.135968258812758,-0.128185563863879,-0.121623683808943,-0.118419044712346,-0.119029452159316,-0.121013276361972,-0.122234091255913,-0.121318480085457,-0.117808637265375,-0.11246757210438,-0.10743171066687,-0.104837479017244,-0.105447886464215,-0.108194719975584,-0.111704562795666,-0.114451396307035,-0.114909201892263,-0.112620173966122,-0.108499923699069,-0.104684877155501,-0.10346406226156,-0.104684877155501,-0.107126506943385,-0.108805127422555,-0.108499923699069,-0.106516099496414,-0.103158858538074,-0.0996490157179919,-0.096902182206623,-0.0961391728979095,-0.096902182206623,-0.097970395238822,-0.097970395238822,-0.0965969784831376,-0.0938501449717688,-0.0903403021516864,-0.086830459331604,-0.0840836258202351,-0.0824050053410653,-0.081489394170609,-0.0799633755531819,-0.0763009308713567,-0.0701968564016482,-0.0627193651762553,-0.0552418739508623,-0.0488325957576684,-0.044254539905387,-0.0413551045322754,-0.0387608728826493,-0.0358614375095377,-0.0320463909659699,-0.0274683351136885,-0.0222798718144362,-0.0163283992064704,-0.0102243247367619,-0.00488325957576694,-0.000457805585228251,0.00381504654356772,0.00915611170456268,0.0160231954829848,0.0239584922936059,0.0321989928277124,0.0402868915000762,0.047306577140241,0.0538684571951777,0.0601251335266289,0.0668396154433083,0.0749275141156721,0.0840836258202349,0.0935449412482831,0.102853654814589,0.111704562795666,0.119487257744544,0.126049137799481,0.132305814130932,0.139020296047612,0.146497787273005,0.154890889668854,0.163589195788188,0.171829696322295,0.179612391271173,0.186479475049595,0.192583549519304,0.198382420265527,0.20418129101175,0.209980161757973,0.215473828780711,0.221120097665191,0.226766366549672,0.231802227987181,0.236075080115977,0.23958492293606,0.242789562032657,0.245383793682283,0.247520219746681,0.249046238364108,0.249809247672821,0.249046238364108,0.246604608576225,0.242636960170914,0.236990691286434,0.230276209369754,0.222951320006104,0.215016023195483,0.20585991149092,0.19517778116893,0.183122234091256,0.170761483290096,0.157942926903708,0.144513963070349,0.13047459179002,0.115977414924462,0.100717228750191,0.0851518388524339,0.0694338470929344,0.0540210590569204,0.0392186784678772,0.0251793071875476,0.0119029452159315,-0.000305203723485538,-0.0119029452159317,-0.0225850755379217,-0.0328094002746835,-0.0419655119792463,-0.0502060125133528,-0.0576835037387457,-0.063940180070197,-0.0694338470929346,-0.0744697085304442,-0.0788951625209829,-0.0831680146497788,-0.0872882649168321,-0.0909507095986572,-0.0943079505569969,-0.0973599877918512,-0.0996490157179919,-0.101327636197162,-0.102548451091103,-0.104074469708531,-0.105447886464215,-0.1057530901877,-0.10514268274073,-0.104074469708531,-0.103006256676332,-0.102090645505875,-0.101327636197162,-0.100564626888448,-0.0999542194414773,-0.099038608271021,-0.0981229971005647,-0.0972073859301085,-0.0964443766213949,-0.0950709598657105,-0.0933923393865406,-0.0915611170456281,-0.0900350984282009,-0.0891194872577447,-0.0889668853960019,-0.0886616816725165,-0.0882038760872884,-0.0877460705020602,-0.086830459331604,-0.0854570425759195,-0.0839310239584924,-0.0827102090645507,-0.0824050053410653,-0.0828628109262934,-0.0831680146497788,-0.0837784220967497,-0.0840836258202351,-0.0839310239584924,-0.0828628109262934,-0.0813367923088663,-0.0796581718296964,-0.078284755074012,-0.0770639401800703,-0.0767587364565849,-0.0769113383183276,-0.0770639401800703,-0.0766061345948422,-0.0755379215626432,-0.074011902945216,-0.0718754768808181,-0.0703494582633909,-0.0697390508164201,-0.0697390508164201,-0.0698916526781628,-0.0701968564016482,-0.0708072638486191,-0.0709598657103618,-0.0715702731573326,-0.0726384861895316,-0.0734014954982452,-0.0738593010834733,-0.0744697085304442,-0.0749275141156723,-0.0752327178391577,-0.075080115977415,-0.075080115977415,-0.075080115977415,-0.0744697085304442,-0.0730962917747598,-0.0718754768808181,-0.0711124675721045,-0.0705020601251336,-0.0700442545399055,-0.0698916526781628,-0.0701968564016482,-0.0711124675721045,-0.0724858843277889,-0.0738593010834733,-0.0743171066687015,-0.0737066992217306,-0.0721806806043035,-0.0705020601251336,-0.0688234396459638,-0.0676026247520221,-0.0669922173050512,-0.0666870135815658,-0.0660766061345949,-0.0657714024111095,-0.0657714024111095,-0.0651609949641387,-0.0636349763467115,-0.0611933465588281,-0.0581413093239739,-0.0549366702273769,-0.0509690218220663,-0.0454753547993287,-0.0379978635739357,-0.0285365481458875,-0.0178544178238976,-0.00686708377842221,0.00350984282008229,0.0137341675568441,0.0231954829848923,0.0309781779337707,0.0358614375095375,0.0373874561269646,0.0360140393712802,0.0326567984129405,0.02868915000763,0.0239584922936059,0.0181596215473828,0.0125133526629024,0.00808789867236369,0.00610407446970842,0.00564626888448028,0.00595147260796571,0.00549366702273757,0.00427285212879586,0.00320463909659687,0.00305203723485415,0.00412025026705315,0.00534106516099485,0.00579887074622299,0.00503586143750943,0.00305203723485415,0.000152601861742602,-0.00289943537311166,-0.00610407446970864,-0.00961391728979104,-0.0135815656951016,-0.018159621547383,-0.0230428811231498,-0.0279261406989166,-0.0326567984129407,-0.0375400579887076,-0.0425759194262171,-0.0476117808637266,-0.0526476423012362,-0.0572256981535176,-0.0610407446970854,-0.0648557912406532,-0.0692812452311919,-0.0743171066687015,-0.0788951625209829,-0.0828628109262934,-0.0860674500228904,-0.0885090798107738,-0.0901877002899436,-0.0914085151838853,-0.0924767282160843,-0.0935449412482833,-0.0943079505569969,-0.0944605524187396,-0.0943079505569969,-0.0940027468335115,-0.0936975431100261,-0.0929345338013125,-0.0917137189073708,-0.0904929040134291,-0.0895772928429728,-0.0891194872577447,-0.0888142835342592,-0.0883564779490311,-0.0877460705020602,-0.0874408667785748,-0.0871356630550894,-0.0863726537463758,-0.0853044407141768,-0.0843888295437205,-0.0842362276819778,-0.0851518388524341,-0.0866778574698612,-0.0878986723638029,-0.0883564779490311,-0.0874408667785748,-0.0854570425759195,-0.0831680146497788,-0.0807263848618954,-0.0781321532122693,-0.0758431252861286,-0.074011902945216,-0.0730962917747598,-0.072943689913017,-0.0727910880512743,-0.0718754768808181,-0.0701968564016482,-0.0686708377842211,-0.0674500228902794,-0.0662292079963377,-0.0651609949641387,-0.0640927819319397,-0.0625667633145125,-0.0610407446970854,-0.0590569204944301,-0.0569204944300322,-0.0550892720891196,-0.0535632534716925,-0.0531054478864643,-0.0534106516099497,-0.0546314665038915,-0.056462688844804,-0.0593621242179156,-0.0633297726232261,-0.0680604303372502,-0.0724858843277889,-0.0763009308713567,-0.078284755074012,-0.0766061345948422,-0.0668396154433085,-0.0450175492141005,-0.00946131542804833,0.0410499008087898,0.107736914390355,0.191515336487105,0.29192736151381,0.407141767129559,0.534259117961239,0.669159163741798,0.806653441171982,0.943537311155196,1.07828475507401,1.20906455058752,1.33114603998169,1.4283534259118,1.47047153975278,1.43308408362582,1.31649626125439,1.1393254997711,0.925988097054784,0.701052952846025,0.485731725927056,0.295742408057378,0.140393712803296,0.0245688997405767,-0.0526476423012362,-0.097970395238822,-0.1214710819472,-0.133679230886617,-0.141919731420723,-0.148939417060888,-0.154585685945369,-0.157790325041966,-0.157027315733252,-0.150923241263544,-0.140393712803296,-0.128948573172593,-0.120250267053258,-0.116587822371433,-0.117808637265375,-0.121928887532428,-0.126201739661224,-0.127575156416908,-0.124980924767282,-0.120097665191515,-0.115519609339234,-0.113535785136579,-0.115519609339234,-0.120555470776744,-0.125896535937739,-0.129406378757821,-0.129406378757821,-0.126049137799481,-0.121623683808943,-0.118266442850603,-0.117656035403632,-0.119945063329773,-0.123912711735083,-0.127727758278651,-0.129101175034336,-0.126964748969938,-0.121776285670685,-0.115672211200977,-0.110941553486953,-0.108499923699069,-0.108194719975584,-0.108652525560812,-0.108042118113841,-0.1057530901877,-0.10178544178239,-0.0972073859301085,-0.0935449412482833,-0.0923241263543416,-0.0935449412482833,-0.0962917747596522,-0.0984282008240502,-0.0982755989623074,-0.0956813673126813,-0.0917137189073708,-0.0880512742255457,-0.0854570425759195,-0.0842362276819778,-0.0840836258202351,-0.0845414314054632,-0.0842362276819778,-0.0824050053410653,-0.0788951625209829,-0.0749275141156723,-0.0717228750190753,-0.0698916526781628,-0.0697390508164201,-0.0700442545399055,-0.0694338470929346,-0.0672974210285367,-0.063940180070197,-0.059667327941401,-0.0555470776743477,-0.0523424385777508,-0.0499008087898673,-0.0477643827254694,-0.0459331603845568,-0.0437967343201588,-0.0404394933618191,-0.0354036319243096,-0.0289943537311156,-0.0222798718144362,-0.0164810010682131,-0.0119029452159317,-0.00808789867236391,-0.00396764840531066,0.00167862047916973,0.0093087135663054,0.0177018159621546,0.0257897146345184,0.0332672058599114,0.0399816877765908,0.0460857622462993,0.0517320311307797,0.0573783000152601,0.063787578208454,0.071265069433847,0.0798107736914389,0.0885090798107736,0.0964443766213947,0.103311460399817,0.109873340454753,0.116893026094918,0.124217915458568,0.131542804822219,0.139172897909354,0.147108194719975,0.154585685945368,0.16145276972379,0.16816725164047,0.174729131695407,0.181138409888601,0.187700289943537,0.194262169998474,0.200671448191668,0.206317717076148,0.211200976651915,0.215321226918968,0.218983671600793,0.222646116282619,0.226461162826186,0.23058141309324,0.234243857775065,0.236685487562948,0.237295895009919,0.235922478254235,0.23287044101938,0.228139783305356,0.22218831069739,0.215473828780711,0.207996337555318,0.200061040744697,0.192430947657561,0.18449565084694,0.176102548451091,0.166793834884785,0.156111704562796,0.144208759346864,0.130932397375248,0.116282618647947,0.101022432473676,0.0860674500228902,0.0714176712955897,0.0570730962917746,0.0428811231497023,0.02868915000763,0.0148023805890431,0.00167862047916973,-0.0103769265985046,-0.0219746680909508,-0.0329620021364262,-0.043186326873188,-0.0526476423012362,-0.0610407446970854,-0.0689760415077065,-0.0759957271478713,-0.0816419960323517,-0.085762246299405,-0.0889668853960019,-0.0915611170456281,-0.0941553486952542,-0.096902182206623,-0.0993438119945064,-0.100869830611934,-0.102090645505875,-0.10346406226156,-0.105295284602472,-0.107584312528613,-0.109873340454754,-0.111551960933923,-0.11246757210438,-0.112925377689608,-0.113230581413093,-0.113383183274836,-0.113230581413093,-0.112772775827865,-0.112314970242637,-0.112620173966122,-0.113230581413093,-0.113535785136579,-0.113077979551351,-0.111857164657409,-0.109720738593011,-0.10743171066687,-0.105447886464215,-0.104532275293759,-0.104074469708531,-0.10346406226156,-0.101938043644133,-0.10010682130322,-0.0985808026857929,-0.0975125896535939,-0.0970547840683657,-0.0967495803448803,-0.0962917747596522,-0.0955287654509386,-0.0946131542804823,-0.0935449412482833,-0.0926293300778271,-0.0918663207691135,-0.0912559133221426,-0.0912559133221426,-0.0914085151838853,-0.0915611170456281,-0.0917137189073708,-0.0912559133221426,-0.0900350984282009,-0.0888142835342592,-0.0878986723638029,-0.0872882649168321,-0.0865252556081185,-0.0856096444376622,-0.0845414314054632,-0.0834732183732643,-0.0824050053410653,-0.0820998016175798,-0.0824050053410653,-0.0831680146497788,-0.0839310239584924,-0.0848466351289487,-0.0856096444376622,-0.0863726537463758,-0.0871356630550894,-0.0872882649168321,-0.0866778574698612,-0.0859148481611477,-0.0856096444376622,-0.085762246299405,-0.0862200518846331,-0.0869830611933467,-0.0875934686403175,-0.0877460705020602,-0.0875934686403175,-0.0877460705020602,-0.0886616816725165,-0.0897298947047155,-0.0901877002899436,-0.0897298947047155,-0.0883564779490311,-0.0865252556081185,-0.084694033267206,-0.0830154127880361,-0.0817945978940944,-0.0807263848618954,-0.0796581718296964,-0.0790477643827256,-0.0787425606592402,-0.0790477643827256,-0.0795055699679537,-0.0798107736914391,-0.0799633755531819,-0.0798107736914391,-0.0796581718296964,-0.0798107736914391,-0.0802685792766673,-0.0808789867236381,-0.0808789867236381,-0.08042118113841,-0.0799633755531819,-0.079352968106211,-0.0785899587974974,-0.0779795513505266,-0.0776743476270412,-0.077216542041813,-0.0764535327330994,-0.0753853197009005,-0.0743171066687015,-0.0734014954982452,-0.0730962917747598,-0.0738593010834733,-0.0752327178391577,-0.0764535327330994,-0.0763009308713567,-0.0752327178391577,-0.0737066992217306,-0.0720280787425608,-0.0697390508164201,-0.0662292079963377,-0.061803754005799,-0.0572256981535176,-0.0529528460247216,-0.0479169845872121,-0.0424233175644744,-0.0361666412330231,-0.0288417518693729,-0.0206012513352664,-0.0114451396307036,-0.00167862047916996,0.00869830611933455,0.019075232717839,0.0273157332519456,0.031893789104227,0.0323515946894551,0.029757363039829,0.0260949183580039,0.0225850755379215,0.0189226308560963,0.0148023805890431,0.0105295284602471,0.00747749122539284,0.00686708377842199,0.0082405005341064,0.0102243247367617,0.0117503433541888,0.0126659545246451,0.0134289638333587,0.0143445750038149,0.0157179917594994,0.0167862047916983,0.0167862047916983,0.0154127880360139,0.0129711582481305,0.010071722875019,0.00717228750190741,0.00457805585228129,0.00152601861742702,-0.00244162978788352,-0.00763009308713577,-0.0129711582481307,-0.0178544178238976,-0.0231954829848925,-0.0292995574546011,-0.035708835647795,-0.042118113840989,-0.0485273920341829,-0.0544788646421487,-0.0598199298031437,-0.0648557912406532,-0.0700442545399055,-0.0753853197009005,-0.0805737830001527,-0.0849992369906914,-0.0880512742255457,-0.0903403021516864,-0.0920189226308562,-0.0926293300778271,-0.0920189226308562,-0.0907981077369145,-0.0892720891194874,-0.0878986723638029,-0.0865252556081185,-0.0851518388524341,-0.0834732183732643,-0.0824050053410653,-0.0819471997558371,-0.0819471997558371,-0.0824050053410653,-0.0824050053410653,-0.0817945978940944,-0.0813367923088663,-0.0813367923088663,-0.0816419960323517,-0.0817945978940944,-0.0817945978940944,-0.0813367923088663,-0.0801159774149246,-0.0787425606592402,-0.0776743476270412,-0.0767587364565849,-0.0758431252861286,-0.0746223103921869,-0.0734014954982452,-0.0726384861895316,-0.0715702731573326,-0.0703494582633909,-0.0686708377842211,-0.0665344117198231,-0.0643979856554251,-0.0624141614527698,-0.0598199298031437,-0.0573783000152603,-0.0556996795360904,-0.0544788646421487,-0.053258049748207,-0.0518846329925226,-0.0500534106516101,-0.0479169845872121,-0.0456279566610714,-0.0434915305966734,-0.0419655119792463,-0.0408972989470473,-0.039981687776591,-0.0387608728826493,-0.0373874561269649,-0.0363192430947659,-0.0355562337860523,-0.0354036319243096,-0.0366244468182513,-0.0398290859148483,-0.0451701510758432,-0.0520372348542653,-0.0595147260796583,-0.0663818098580804,-0.0721806806043035,-0.0753853197009005,-0.0720280787425608,-0.0567678925682894,-0.0259423164962614,0.0218220662292079,0.0863726537463756,0.167556844193499,0.265374637570578,0.378300015260186,0.503738745612696,0.638028383946284,0.775827865099954,0.913016938806653,1.0482221883107,1.18037540057989,1.30566152907065,1.41141461925835,1.46864031741187,1.44697085304441,1.34030215168625,1.16786204791698,0.956813673126812,0.732641538226766,0.517167709446055,0.325804974820693,0.16816725164047,0.0488325957576681,-0.0329620021364262,-0.0828628109262934,-0.110178544178239,-0.125591332214253,-0.137036471844957,-0.147718602166947,-0.15748512131848,-0.164657408820388,-0.166946436746528,-0.162215779032504,-0.151228444987029,-0.137646879291927,-0.126049137799481,-0.120250267053258,-0.120555470776744,-0.124523119182054,-0.12879597131085,-0.130169388066535,-0.128032962002137,-0.12314970242637,-0.11811384098886,-0.115824813062719,-0.11811384098886,-0.123760109873341,-0.130169388066535,-0.134747443918816,-0.135510453227529,-0.132305814130933,-0.12711735083168,-0.122081489394171,-0.119029452159316,-0.118724248435831,-0.120402868915001,-0.121928887532428,-0.1214710819472,-0.11811384098886,-0.112772775827865,-0.107279108805128,-0.10346406226156,-0.102701052952846,-0.10514268274073,-0.109262933007783,-0.112772775827865,-0.113230581413093,-0.110331146039982,-0.10514268274073,-0.0999542194414773,-0.0962917747596522,-0.0949183580039678,-0.0949183580039678,-0.0950709598657105,-0.0936975431100261,-0.0907981077369145,-0.0871356630550894,-0.0839310239584924,-0.082557607202808,-0.0827102090645507,-0.083625820235007,-0.0839310239584924,-0.0830154127880361,-0.0807263848618954,-0.077216542041813,-0.072943689913017,-0.0686708377842211,-0.0648557912406532,-0.0624141614527698,-0.0608881428353427,-0.0595147260796583,-0.0578361056004884,-0.055394475812605,-0.0517320311307799,-0.0479169845872121,-0.0441019380436442,-0.0405920952235618,-0.0376926598504503,-0.0354036319243096,-0.0326567984129407,-0.0288417518693729,-0.0239584922936061,-0.0184648252708684,-0.012818556386388,-0.00747749122539306,-0.00289943537311166,0.000610407446970742,0.00396764840531043,0.0082405005341064,0.0135815656951014,0.0202960476117808,0.0277735388371737,0.0354036319243094,0.0416603082557606,0.0465435678315274,0.0508164199603234,0.0561574851213184,0.0633297726232259,0.0724858843277887,0.0825576072028078,0.0924767282160841,0.10178544178239,0.110178544178239,0.117656035403632,0.124370517320311,0.130321989928277,0.136426064397986,0.142835342591179,0.148939417060888,0.154433084083626,0.15916374179765,0.163894399511674,0.168777659087441,0.173660918663208,0.178391576377232,0.18281703036777,0.186784678773081,0.190447123454906,0.194567373721959,0.199298031435983,0.203876087288265,0.208606745002289,0.213032198992828,0.216999847398138,0.220662292079963,0.223103921867847,0.224172134900046,0.224629940485274,0.224629940485274,0.224172134900046,0.222340912559133,0.219288875324279,0.215473828780711,0.211048374790172,0.206165115214406,0.200671448191668,0.193956966274988,0.185411262017396,0.175186937280635,0.163436593926446,0.151075843125286,0.139172897909354,0.12711735083168,0.114451396307035,0.100869830611933,0.0869830611933464,0.0737066992217304,0.060582939111857,0.0477643827254691,0.0354036319243094,0.0238058904318632,0.0131237601098732,0.00320463909659687,-0.00610407446970864,-0.0152601861742714,-0.0242636960170915,-0.032504196551198,-0.039981687776591,-0.0468487715550131,-0.0535632534716925,-0.0598199298031437,-0.0654661986876241,-0.0706546619868764,-0.0749275141156723,-0.0779795513505266,-0.0802685792766673,-0.0822524034793226,-0.0834732183732643,-0.083625820235007,-0.0834732183732643,-0.0837784220967497,-0.0849992369906914,-0.0866778574698612,-0.0880512742255457,-0.0886616816725165,-0.0886616816725165,-0.0883564779490311,-0.0877460705020602,-0.0874408667785748,-0.0872882649168321,-0.0871356630550894,-0.0874408667785748,-0.0880512742255457,-0.0891194872577447,-0.0897298947047155,-0.0895772928429728,-0.0891194872577447,-0.0891194872577447,-0.0891194872577447,-0.0885090798107738,-0.0875934686403175,-0.0869830611933467,-0.0865252556081185,-0.0860674500228904,-0.0856096444376622,-0.085762246299405,-0.0862200518846331,-0.086830459331604,-0.0877460705020602,-0.0888142835342592,-0.0900350984282009,-0.0912559133221426,-0.0923241263543416,-0.0926293300778271,-0.0921715244925989,-0.0911033114603999,-0.0895772928429728,-0.0877460705020602,-0.0860674500228904,-0.084694033267206,-0.083625820235007,-0.0833206165115215,-0.083625820235007,-0.0845414314054632,-0.0860674500228904,-0.0875934686403175,-0.0892720891194874,-0.0911033114603999,-0.0923241263543416,-0.0924767282160843,-0.0920189226308562,-0.0912559133221426,-0.0903403021516864,-0.0885090798107738,-0.0859148481611477,-0.083625820235007,-0.0824050053410653,-0.0824050053410653,-0.0830154127880361,-0.0833206165115215,-0.0837784220967497,-0.0849992369906914,-0.0865252556081185,-0.0880512742255457,-0.0894246909812301,-0.0900350984282009,-0.0900350984282009,-0.0895772928429728,-0.0889668853960019,-0.0888142835342592,-0.0889668853960019,-0.0895772928429728,-0.0901877002899436,-0.0907981077369145,-0.0914085151838853,-0.0915611170456281,-0.0914085151838853,-0.0909507095986572,-0.0914085151838853,-0.0929345338013125,-0.0949183580039678,-0.0967495803448803,-0.0981229971005647,-0.0993438119945064,-0.10010682130322,-0.10010682130322,-0.099038608271021,-0.096902182206623,-0.0941553486952542,-0.0914085151838853,-0.0891194872577447,-0.0874408667785748,-0.086830459331604,-0.086830459331604,-0.0860674500228904,-0.0834732183732643,-0.078284755074012,-0.0714176712955899,-0.0636349763467115,-0.055394475812605,-0.0466961696932704,-0.0379978635739357,-0.0299099649015719,-0.0230428811231498,-0.018159621547383,-0.0154127880360142,-0.0148023805890433,-0.0155653898977569,-0.0163283992064704,-0.0167862047916986,-0.0180070196856403,-0.0199908438882955,-0.0216694643674654,-0.02136426064398,-0.0193804364413247,-0.0163283992064704,-0.013886769418587,-0.0122081489394172,-0.0108347321837328,-0.00869830611933477,-0.0056462688844805,-0.00289943537311166,-0.00137341675568453,-0.00198382420265538,-0.00473065771402422,-0.00900350984282019,-0.0137341675568443,-0.018159621547383,-0.0225850755379217,-0.0273157332519458,-0.0329620021364262,-0.0384556691591638,-0.0430337250114452,-0.0471539752784985,-0.0512742255455518,-0.055394475812605,-0.0598199298031437,-0.0642453837936824,-0.0691286433694492,-0.0747749122539296,-0.0819471997558371,-0.0898824965664582,-0.0970547840683657,-0.102701052952846,-0.106668701358157,-0.109262933007783,-0.11078895162521,-0.111704562795666,-0.111857164657409,-0.111399359072181,-0.110331146039982,-0.108805127422555,-0.106668701358157,-0.10514268274073,-0.104684877155501,-0.104684877155501,-0.104379673432016,-0.104074469708531,-0.104227071570273,-0.104837479017244,-0.105600488325958,-0.106058293911186,-0.105905692049443,-0.104684877155501,-0.103158858538074,-0.10178544178239,-0.100717228750191,-0.0994964138562491,-0.0985808026857929,-0.097970395238822,-0.0976651915153366,-0.0976651915153366,-0.0984282008240502,-0.0996490157179919,-0.100412025026705,-0.0998016175797346,-0.0984282008240502,-0.0970547840683657,-0.0950709598657105,-0.0926293300778271,-0.0904929040134291,-0.0891194872577447,-0.0885090798107738,-0.0878986723638029,-0.0871356630550894,-0.0863726537463758,-0.085762246299405,-0.0849992369906914,-0.0837784220967497,-0.082557607202808,-0.0808789867236381,-0.0788951625209829,-0.0764535327330994,-0.074011902945216,-0.0718754768808181,-0.0697390508164201,-0.0677552266137648,-0.0669922173050512,-0.0676026247520221,-0.0692812452311919,-0.0717228750190753,-0.0749275141156723,-0.0785899587974974,-0.0819471997558371,-0.0843888295437205,-0.0863726537463758,-0.0872882649168321,-0.0834732183732643,-0.0701968564016482,-0.0437967343201588,-0.00152601861742724,0.0567678925682892,0.130779795513505,0.221272699526934,0.328399206470319,0.450938501449718,0.585685945368533,0.726384861895315,0.867541584007325,1.00625667633145,1.1403937128033,1.26735846177323,1.37768960781322,1.44330840836258,1.42865862963528,1.32305814130932,